**HEADER
RELEASE   Release of TYDEX-Format                 1.3
MEASID    Measurement ID                          long_2p7_09fz4_00cam0_60v1_00al0_01
SUPPLIER  Data Supplier                           ika-fka / Flattrac / friederichs
DATE      Date                                    03/02/20
CLCKTIME  Clocktime                               11:11

**COMMENTS
------------------------------------
Pure longitudinal slip data for
Bridgestone Potenza S001 MO 245/50R18 100W DOT4918
------------------------------------

**CONSTANTS
LOCATION  Location                      -         ika-fka, Aachen
MANUFACT  Tyre brand name               -         Bridgestone
IDENTITY  Commercial name               -         Potenza S001 MO
TYREMASS  Tyre mass                     kg        11.95
OVALLDIA  Measured outside diameter     m         0.70798
NOMDIAME  Nominal diameter of tyre      m         0.7022
NOMWIDTH  Nominal section width of tyre m         0.245
ASPRATIO  Nominal aspect ratio          -         0.5
SPEEDSYM  Speed symbol                  -         W
LOADIND   Load index                    -         100
TYROTIN   Tyre rot. inertia about YC    kgm2      1.233
RIMDIAME  Nominal rim diameter          m         0.4572
RIMWIDTH  Rim width                     m         0.2032
RIMROTIN  Rim rotational inertia        kgm2      0.386
TESTRIG   Test rig                      -         FlatTrac CT+
TRGROTIN  Test rig rot. inertia         kgm2      -
CURVTRSF  Curvature of track surface    1/m       0
TRCKSURF  Surface of Track              -         Korund P120
TRCKCOND  Condition of Track Surface    -         dry
SLIPANGL  Slip angle                    deg       0
INCLANGL  Inclination angle             deg       0

**MEASURCHANNELS
RUNTIME   Running time                  s         1         0         0
FX        Longitudinal Force            N         1         0         0
FYW       Lateral Force                 N         1         0         0
FZW       Vertical Force                N         1         0         0
INCLANGL  Inclination angle             deg       1         0         0
SLIPANGL  Slip angle                    deg       1         0         0
WHROTSPD  WHEEL rotation speed          rad/s     1         0         0
TRAJVELW  Trajectory velocity           m/s       1         0         0
DSTGRWHC  Dist. ground - WHEEL centre   mm        1         0         0
LONGSLIP  Longitudinal slip             %         1         0         0
INFLPRES  Inflation pressure            kPa       1         0         0
TRDTEMP   Tread surface temperature     deg C     1         0         0

**MEASURDATA
0         3381      -317.999  9533.06   0         0         48.5186   16.6197   319.71    0.776834  269.701   29.4031   
0.01      3334.61   -311.663  9520.28   0         0         48.4026   16.6218   319.71    0.521515  269.709   29.3951   
0.02      3132.5    -305.564  9491.95   0         0         48.3884   16.6198   319.71    0.499663  269.701   29.4073   
0.03      3073.55   -302.666  9492.84   0         0         48.4161   16.6199   319.71    0.547131  269.705   29.239    
0.04      2954.7    -301.591  9499.91   0         0         48.3808   16.6243   319.71    0.465082  269.681   29.1924   
0.05      2865.16   -301.219  9510.85   0         0         48.3904   16.6306   319.71    0.472291  269.67    29.1994   
0.06      2772.56   -302.707  9515.71   0         0         48.3775   16.6292   319.71    0.435655  269.6     29.2631   
0.07      2684.57   -305.816  9514.09   0         0         48.3927   16.6319   319.71    0.441467  269.695   29.3124   
0.08      2601.37   -307.934  9506.49   0         0         48.3986   16.6394   319.71    0.416296  269.632   29.2883   
0.09      2511.44   -308.739  9499.09   0         0         48.4078   16.6424   319.71    0.408308  269.596   29.3556   
0.1       2424.46   -309.972  9496.85   0         0         48.4104   16.651    319.71    0.3863    269.604   29.4119   
0.11      2332.22   -310.797  9498.46   0         0         48.4098   16.649    319.71    0.36421   269.625   29.3869   
0.12      2244.58   -312.252  9500.28   0         0         48.4102   16.6575   319.71    0.347261  269.594   29.4472   
0.13      2157.82   -314.222  9499.32   0         0         48.4099   16.6603   319.71    0.330619  269.599   29.5037   
0.14      2072.31   -316.7    9495.38   0         0         48.4101   16.6601   319.71    0.31198   269.595   29.5037   
0.15      1984.49   -317.981  9489.44   0         0         48.4101   16.6595   319.71    0.297714  269.594   29.4715   
0.16      1897.92   -319.153  9485.3    0         0         48.4094   16.667    319.71    0.278547  269.58    29.3918   
0.17      1806.89   -320.661  9483.82   0         0         48.4002   16.6708   319.71    0.255927  269.525   29.4048   
0.18      1718.45   -322.042  9483.6    0         0         48.4006   16.6696   319.71    0.237906  269.469   29.3966   
0.19      1630.4    -323.749  9483.3    0         0         48.3956   16.6703   319.71    0.22061   269.481   29.403    
0.2       1544.25   -325.793  9481.27   0         0         48.3874   16.6699   319.71    0.20368   269.507   29.3963   
0.21      1455.56   -327.766  9477.32   0         0         48.3808   16.6701   319.71    0.183578  269.49    29.4109   
0.22      1368.1    -329.121  9473.01   0         0         48.3725   16.6699   319.71    0.167049  269.4     29.4951   
0.23      1278.5    -330.907  9470.48   0         0         48.3606   16.67     319.71    0.145194  269.423   29.502    
0.24      1188.58   -332.596  9469.66   0         0         48.3498   16.67     319.71    0.126129  269.444   29.4998   
0.25      1099.89   -334.36   9469.19   0         0         48.3402   16.67     319.71    0.107073  269.404   29.5912   
0.26      1012.61   -336.254  9467.83   0         0         48.3305   16.67     319.71    0.0895318 269.4     29.5985   
0.27      924.555   -338.437  9465.01   0         0         48.3205   16.67     319.71    0.0686294 269.401   29.6059   
0.28      836.4     -340.167  9461.22   0         0         48.3115   16.67     319.71    0.0529426 269.397   29.4454   
0.29      748.698   -341.739  9457.99   0         0         48.3019   16.67     319.71    0.0322413 269.406   29.3874   
0.3       658.634   -343.613  9456.24   0         0         48.293    16.67     319.71    0.0112672 269.334   29.4076   
0.31      569.695   -345.381  9455.05   0         0         48.2831   16.6701   319.71    -0.00846789 269.299   29.3938   
0.32      480.983   -347.286  9454.08   0         0         48.2773   16.6699   319.71    -0.0265723 269.295   29.4065   
0.33      394.022   -349.209  9452.29   0         0         48.2667   16.6702   319.71    -0.0465811 269.326   29.3901   
0.34      303.297   -350.852  9449.55   0         0         48.2607   16.6697   319.71    -0.068242 269.304   29.4543   
0.35      212.629   -352.559  9447.32   0         0         48.2532   16.6704   319.71    -0.0846335 269.279   29.509    
0.36      126.169   -354.014  9444.96   0         0         48.2498   16.6692   319.71    -0.0993873 269.286   29.4945   
0.37      40.6943   -355.679  9443.25   0         0         48.2435   16.6741   319.71    -0.120217 269.301   29.5045   
0.38      -48.1236  -357.744  9441.62   0         0         48.2328   16.6808   319.71    -0.145453 269.284   29.4949   
0.391     -139.591  -359.312  9439.82   0         0         48.2251   16.6796   319.71    -0.167178 269.294   29.5078   
0.401     -228.986  -361.443  9437.93   0         0         48.2197   16.6803   319.71    -0.183991 269.301   29.4706   
0.411     -315.382  -363.317  9436.37   0         0         48.216    16.6798   319.71    -0.200666 269.301   29.3937   
0.421     -402.076  -365.092  9434.38   0         0         48.2069   16.6801   319.71    -0.221263 269.296   29.4037   
0.431     -492.072  -367.307  9431.97   0         0         48.2013   16.6799   319.71    -0.241824 269.284   29.397    
0.441     -580.795  -369.109  9429.99   0         0         48.1943   16.68     319.71    -0.25861  269.228   29.4031   
0.451     -666.98   -371.023  9427.55   0         0         48.1881   16.68     319.71    -0.277146 269.192   29.3951   
0.461     -754.239  -372.818  9425.12   0         0         48.1796   16.68     319.71    -0.299186 269.255   29.4177   
0.471     -843.838  -374.474  9422.8    0         0         48.1702   16.68     319.71    -0.321942 269.26    29.5899   
0.481     -933.491  -376.517  9421.03   0         0         48.1623   16.6799   319.71    -0.341377 269.188   29.6028   
0.491     -1021.33  -378.022  9418.93   0         0         48.1543   16.6801   319.71    -0.359475 269.242   29.5979   
0.501     -1108.39  -379.846  9417.61   0         0         48.1449   16.6798   319.71    -0.380205 269.293   29.6029   
0.511     -1196.91  -381.981  9416.64   0         0         48.1336   16.6809   319.71    -0.404609 269.262   29.596    
0.521     -1287.08  -383.716  9415.58   0         0         48.1236   16.6896   319.71    -0.427035 269.238   29.6073   
0.531     -1376.21  -385.865  9414.54   0         0         48.1152   16.69     319.701   -0.446672 269.278   29.4501   
0.541     -1463.89  -387.714  9413.62   0         0         48.1066   16.69     319.7     -0.465519 269.278   29.3836   
0.551     -1551.38  -389.569  9411.72   0         0         48.0976   16.69     319.7     -0.485473 269.303   29.4148   
0.561     -1640.69  -392.02   9409.68   0         0         48.0879   16.69     319.7     -0.507149 269.236   29.3298   
0.571     -1728.75  -393.742  9408.65   0         0         48.0795   16.69     319.693   -0.526155 269.194   29.2976   
0.581     -1815.54  -395.553  9407.44   0         0         48.0702   16.69     319.689   -0.547906 269.201   29.2955   
0.591     -1903.71  -397.542  9406.18   0         0         48.0598   16.69     319.691   -0.571662 269.293   29.3475   
0.601     -1993.75  -399.224  9405.16   0         0         48.0494   16.69     319.685   -0.594073 269.268   29.4146   
0.611     -2083.01  -401.267  9404.43   0         0         48.0401   16.69     319.679   -0.612956 269.197   29.3855   
0.621     -2170.08  -402.939  9403.53   0         0         48.0318   16.69     319.681   -0.632902 269.235   29.4442   
0.631     -2256.97  -404.875  9403.03   0         0         48.0216   16.69     319.676   -0.656546 269.292   29.5034   
0.641     -2345.5   -406.994  9402.73   0         0         48.01     16.69     319.669   -0.681555 269.288   29.503    
0.651     -2434.93  -408.777  9402.31   0         0         47.9996   16.69     319.671   -0.703036 269.29    29.4758   
0.661     -2522.3   -410.969  9401.89   0         0         47.9912   16.69     319.667   -0.72229  269.302   29.391    
0.671     -2607.53  -412.874  9401.6    0         0         47.9834   16.69     319.659   -0.741082 269.309   29.4081   
0.681     -2692.65  -414.65   9401.09   0         0         47.9736   16.69     319.661   -0.762783 269.3     29.3811   
0.691     -2779.74  -416.888  9400.23   0         -1.46452E-6 47.9636   16.69     319.654   -0.785285 269.304   29.3006   
0.701     -2865.27  -418.755  9399.89   0         1.91572E-6 47.9562   16.69     319.649   -0.804336 269.285   29.3      
0.711     -2948.75  -420.576  9398.97   0         -3.81155E-6 47.9468   16.69     319.65    -0.824656 269.279   29.3001   
0.721     -3033.02  -422.431  9398.05   0         1.88834E-6 47.9369   16.69     319.641   -0.849459 269.325   29.2996   
0.731     -3118.92  -423.866  9397.22   0         -5.08919E-6 47.9268   16.69     319.641   -0.871782 269.348   29.3005   
0.741     -3204.01  -425.975  9396.86   0         5.45652E-6 47.9198   16.69     319.636   -0.890244 269.296   29.3004   
0.751     -3285.97  -427.476  9396.39   0         -1.67965E-5 47.9131   16.69     319.629   -0.909192 269.335   29.3847   
0.761     -3366.74  -429.229  9396.12   0         2.92092E-5 47.9046   16.69     319.631   -0.93111  269.399   29.4048   
0.771     -3448.93  -431.044  9396.26   0         -7.65536E-5 47.8949   16.6903   319.62    -0.957767 269.394   29.3966   
0.781     -3533.02  -432.715  9396.3    0         0.000258512 47.8857   16.699    319.621   -0.980803 269.392   29.4035   
0.791     -3615.36  -434.538  9396.27   0         0.0011691 47.8796   16.7002   319.615   -0.999541 269.405   29.3955   
0.801     -3694.47  -436.276  9396.25   0         0.00181844 47.873    16.6999   319.61    -1.01783  269.392   29.408    
0.811     -3772.69  -437.6    9395.96   0         0.00249518 47.8662   16.7001   319.609   -1.03919  269.452   29.3375   
0.821     -3853.04  -439.544  9395.29   0         0.00510664 47.8589   16.6999   319.6     -1.06104  269.414   29.2911   
0.831     -3932.73  -441.153  9395.4    0         0.00112677 47.8516   16.7001   319.599   -1.08028  269.403   29.3055   
0.841     -4010.19  -442.669  9395.19   0         0.00534354 47.8442   16.6999   319.59    -1.10138  269.411   29.2951   
0.851     -4087.48  -444.291  9394.98   0         0.00774093 47.8365   16.7002   319.59    -1.1247   269.484   29.3055   
0.861     -4165.94  -445.304  9394.78   0         0.00495298 47.8282   16.6997   319.581   -1.14803  269.497   29.2911   
0.871     -4244.43  -447.045  9395.04   0         0.0100614 47.8212   16.7012   319.579   -1.16757  269.484   29.3378   
0.881     -4319.94  -448.398  9395.11   0         0.00979855 47.8153   16.7098   319.571   -1.18587  269.512   29.4081   
0.891     -4393.87  -449.656  9395.46   0         0.0101177 47.8073   16.71     319.57    -1.20723  269.574   29.3954   
0.901     -4468.36  -451.173  9396.05   0         0.00998429 47.7977   16.71     319.561   -1.23174  269.557   29.4036   
0.911     -4544.57  -452.545  9396.48   0         0.00979879 47.7887   16.71     319.56    -1.25637  269.577   29.3965   
0.921     -4619.78  -454.139  9396.94   0         0.00821465 47.7817   16.71     319.552   -1.27617  269.602   29.4049   
0.931     -4692.1   -455.52   9397.42   0         0.0100444 47.7759   16.71     319.549   -1.29381  269.65    29.3843   
0.941     -4762.84  -456.596  9397.88   0         0.00996167 47.7682   16.7099   319.542   -1.31341  269.68    29.3004   
0.951     -4834.89  -458.009  9398.04   0         0.00904127 47.7611   16.7101   319.538   -1.33575  269.684   29.2998   
0.961     -4906.54  -459.436  9398.75   0         0.0100009 47.7536   16.7099   319.531   -1.35528  269.682   29.3049   
0.971     -4976.07  -460.538  9399.02   0         0.00999759 47.7458   16.7102   319.527   -1.37468  269.643   29.3942   
0.981     -5045.38  -462.071  9399.04   0         0.0100082 47.7366   16.7095   319.521   -1.39805  269.724   29.4001   
0.991     -5115.7   -462.709  9399.19   0         0.00998475 47.7282   16.7118   319.515   -1.42035  269.755   29.4012   
1.001     -5186.12  -464.153  9399.55   0         0.0100249 47.7211   16.7202   319.51    -1.44008  269.712   29.3977   
1.011     -5253.58  -465.325  9400.08   0         0.00995878 47.7154   16.7198   319.505   -1.45823  269.746   29.4039   
1.021     -5318.9   -466.294  9400.44   0         0.01008   47.7064   16.7201   319.499   -1.47939  269.811   29.3929   
1.031     -5384.81  -467.372  9401.28   0         0.00974199 47.6967   16.7199   319.493   -1.50339  269.848   29.4755   
1.041     -5452.31  -468.349  9402.04   0         0.00890135 47.6874   16.72     319.487   -1.52857  269.803   29.5025   
1.051     -5519.16  -469.722  9402.86   0         0.00929795 47.6802   16.72     319.482   -1.54788  269.857   29.5049   
1.061     -5582.6   -470.769  9403.52   0         0.0100649 47.6726   16.72     319.476   -1.56581  269.907   29.4409   
1.071     -5644.56  -471.353  9404.31   0         0.0099769 47.6648   16.72     319.47    -1.58492  269.909   29.3907   
1.081     -5707.54  -472.39   9404.33   0         0.0100122 47.6567   16.7201   319.465   -1.60586  269.913   29.4044   
1.091     -5770.29  -473.492  9405.07   0         0.00999219 47.6497   16.7199   319.458   -1.62394  269.917   29.3979   
1.101     -5830.51  -474.098  9405.75   0         0.0100055 47.643    16.7202   319.453   -1.6436   269.888   29.4003   
1.111     -5890.41  -475.281  9406.38   0         0.00999599 47.6345   16.7197   319.446   -1.66428  269.962   29.4012   
1.121     -5950.87  -475.513  9406.95   0         0.0100028 47.6248   16.7204   319.441   -1.68763  269.997   29.3968   
1.131     -6012.29  -476.338  9407.72   0         0.00999807 47.6156   16.7191   319.435   -1.70873  269.966   29.406    
1.141     -6070.94  -477.194  9408.57   0         0.0100018 47.6095   16.725    319.429   -1.72565  269.967   29.3877   
1.152     -6126.7   -477.626  9409.24   0         0.01      47.6029   16.7309   319.423   -1.74517  270.056   29.4486   
1.162     -6182.55  -478.443  9410.29   0         0.0100021 47.5932   16.7296   319.418   -1.76826  270.08    29.6075   
1.172     -6239.89  -478.717  9411.03   0         0.00999712 47.5826   16.7303   319.411   -1.79191  270.069   29.5982   
1.182     -6297.24  -479.643  9411.71   0         0.0100046 47.5741   16.7298   319.407   -1.81176  270.102   29.5898   
1.192     -6351.13  -480.297  9412.07   0         0.00999311 47.5678   16.7301   319.4     -1.82845  270.116   29.4986   
1.202     -6403.33  -480.632  9412.54   0         0.0100101 47.5605   16.7299   319.398   -1.84752  270.153   29.5019   
1.212     -6456.24  -481.118  9412.93   0         0.0099852 47.5531   16.73     319.389   -1.86694  270.16    29.4986   
1.222     -6509.52  -481.831  9414.01   0         0.0100228 47.545    16.73     319.391   -1.88426  270.123   29.5008   
1.232     -6559.93  -481.999  9414.77   0         0.00996034 47.5379   16.73     319.384   -1.90201  270.143   29.4993   
1.242     -6609.55  -482.837  9414.75   0         0.0100921 47.53     16.73     319.379   -1.92127  270.187   29.501    
1.252     -6659.73  -482.958  9414.78   0         0.00944948 47.5207   16.73     319.38    -1.94378  270.229   29.5785   
1.262     -6711.01  -482.972  9414.72   0         0.00886209 47.512    16.73     319.371   -1.96453  270.211   29.6106   
1.272     -6760.37  -483.739  9414.9    0         0.00960018 47.5052   16.73     319.37    -1.98094  270.197   29.5863   
1.282     -6806.27  -483.721  9415.02   0         0.0100949 47.4971   16.73     319.37    -1.99813  270.25    29.7425   
1.292     -6851.67  -483.971  9415.37   0         0.00995456 47.4885   16.73     319.361   -2.01889  270.308   29.8154   
1.302     -6898.39  -483.809  9415.77   0         0.0100271 47.4781   16.73     319.36    -2.04374  270.294   29.7896   
1.312     -6945.98  -484.38   9416.19   0         0.0099844 47.469    16.7301   319.359   -2.06531  270.298   29.8104   
1.322     -6990.88  -484.608  9416.37   0         0.0100073 47.461    16.7299   319.35    -2.08258  270.337   29.787    
1.332     -7034.07  -484.601  9416.71   0         0.0100014 47.4531   16.7302   319.351   -2.10247  270.38    29.8218   
1.342     -7078.41  -484.412  9416.66   0         0.00999365 47.4444   16.7297   319.347   -2.12175  270.361   29.7018   
1.352     -7123.28  -484.728  9416.67   0         0.0100139 47.4366   16.7304   319.339   -2.13873  270.356   29.5902   
1.362     -7165.34  -484.643  9417.01   0         0.00997799 47.4289   16.7291   319.341   -2.15545  270.374   29.5941   
1.372     -7206.34  -484.793  9417.21   0         0.010039  47.4204   16.7353   319.338   -2.17459  270.384   29.6611   
1.382     -7248.33  -484.672  9417.53   0         0.00993323 47.4104   16.7409   319.33    -2.19784  270.431   29.8205   
1.392     -7291.79  -484.107  9417.74   0         0.0101437 47.4004   16.7396   319.33    -2.22055  270.422   29.7852   
1.402     -7334.82  -484.518  9418.12   0         0.00928406 47.3918   16.7403   319.329   -2.23851  270.404   29.8273   
1.412     -7374.23  -484.154  9418.34   0         0.00851557 47.385    16.7398   319.321   -2.25555  270.476   29.9016   
1.422     -7412.92  -484.126  9418.75   0         0.0103257 47.3744   16.7401   319.32    -2.27666  270.513   29.897    
1.432     -7453.1   -483.712  9419.2    0         0.00633208 47.3644   16.7399   319.321   -2.3013   270.5     29.9121   
1.442     -7494.08  -483.618  9419.51   0         0.00715358 47.355    16.74     319.313   -2.32127  270.494   29.998    
1.452     -7532.77  -483.777  9419.77   0         0.00775529 47.3465   16.74     319.309   -2.34028  270.561   30.0003   
1.462     -7569.52  -483.499  9420.01   0         0.00790308 47.3376   16.74     319.311   -2.3597   270.564   29.9996   
1.472     -7607.92  -483.083  9420.31   0         0.00776298 47.3276   16.74     319.306   -2.38032  270.576   30.0008   
1.482     -7647.49  -482.966  9420.57   0         0.0101359 47.3203   16.74     319.3     -2.39845  270.559   29.9986   
1.492     -7684.45  -482.941  9420.96   0         0.00592677 47.3136   16.74     319.3     -2.41283  270.584   30.0018   
1.502     -7718.77  -482.802  9421.12   0         0.00730417 47.3055   16.74     319.301   -2.42909  270.575   29.9972   
1.512     -7754.28  -482.755  9421.22   0         0.00548553 47.2955   16.74     319.293   -2.45181  270.625   30.0045   
1.522     -7791.66  -482.028  9421.28   0         0.00388792 47.2841   16.74     319.289   -2.47473  270.617   29.9905   
1.532     -7829.59  -482.114  9421.29   0         0.00395077 47.274    16.74     319.29    -2.49617  270.605   30.1332   
1.542     -7864.94  -481.894  9421.43   0         0.00724597 47.2666   16.74     319.291   -2.51396  270.639   30.2241   
1.552     -7897.99  -481.573  9421.49   0         0.00414095 47.2566   16.74     319.285   -2.53431  270.71    30.1737   
1.562     -7932.35  -481.36   9421.62   0         0.00236419 47.2454   16.74     319.279   -2.55838  270.708   30.3222   
1.572     -7967.64  -480.698  9421.82   0         0.00149072 47.235    16.74     319.28    -2.58093  270.67    30.4091   
1.582     -8002.82  -480.823  9421.94   0         0.00179391 47.2238   16.74     319.281   -2.6051   270.736   30.4031   
1.592     -8037.79  -480.326  9421.87   0         0.00100807 47.2094   16.74     319.276   -2.63518  270.772   30.3575   
1.602     -8078.57  -479.869  9421.94   0         0.00499257 47.1922   16.74     319.269   -2.67057  270.767   30.292    
1.612     -8123.72  -479.15   9421.71   0         0.00203925 47.1763   16.74     319.271   -2.70414  270.764   30.2992   
1.622     -8168.5   -479.05   9421.62   0         0.00166045 47.1627   16.74     319.27    -2.73216  270.774   30.3274   
1.632     -8209.91  -478.29   9421.54   0         0.0038076 47.1478   16.74     319.27    -2.76172  270.768   30.4108   
1.642     -8253.37  -477.984  9421.69   0         0.00242822 47.1282   16.74     319.261   -2.80266  270.811   30.3915   
1.652     -8298.67  -476.555  9421.74   0         0.000521754 47.1048   16.74     319.26    -2.85132  270.804   30.4207   
1.662     -8346.65  -475.672  9421.67   0         0.00240939 47.077    16.74     319.26    -2.90716  270.796   30.5063   
1.672     -8395.72  -474.926  9421.36   0         0.000189713 47.0519   16.74     319.261   -2.96214  270.818   30.4886   
1.682     -8441.39  -473.271  9421.3    0         -7.2856E-5 47.0261   16.74     319.256   -3.01556  270.888   30.5433   
1.692     -8485.97  -472.594  9421.06   0         0.000206402 47.0006   16.74     319.249   -3.07277  270.902   30.8889   
1.702     -8530.88  -470.205  9420.9    0         0.00162302 46.975    16.74     319.25    -3.12507  270.866   30.9009   
1.712     -8575.87  -469.216  9420.66   0         0.000175609 46.9514   16.74     319.25    -3.17603  270.913   30.8998   
1.722     -8617.77  -467.594  9420.55   0         0.00196014 46.93     16.74     319.25    -3.22232  270.931   30.9005   
1.732     -8658.6   -466.23   9420.2    0         -0.000117096 46.9071   16.74     319.241   -3.27411  270.959   30.899    
1.742     -8704.65  -464.716  9420.42   0         0.000501864 46.8846   16.74     319.24    -3.32068  270.938   30.9015   
1.752     -8750.2   -462.78   9420.59   0         0.000769042 46.8669   16.74     319.24    -3.35813  270.925   30.8976   
1.762     -8792.27  -462.12   9420.55   0         0.00173097 46.8517   16.74     319.24    -3.39007  270.942   30.904    
1.772     -8832.13  -460.41   9420.71   0         5.0104E-5 46.832    16.74     319.231   -3.43196  270.956   30.8911   
1.782     -8875.34  -459.445  9420.91   0         -3.98159E-5 46.8068   16.74     319.23    -3.48569  270.996   31.0278   
1.792     -8915.2   -457.291  9420.87   0         2.64019E-5 46.7758   16.74     319.23    -3.55101  270.978   31.1278   
1.802     -8957.32  -455.962  9420.4    0         -1.6716E-5 46.7425   16.7401   319.229   -3.62177  270.966   31.0666   
1.812     -9001.07  -454.121  9420.38   0         8.13983E-6 46.7119   16.7399   319.221   -3.68612  271.026   31.2708   
1.822     -9036.58  -452.36   9420.15   0         -3.19711E-6 46.6853   16.7402   319.22    -3.74098  271.039   31.4232   
1.832     -9073.33  -450.515  9419.87   0         -1.17108E-6 46.6555   16.7397   319.221   -3.80422  270.999   31.3887   
1.842     -9109.8   -447.326  9419.58   0         4.59797E-6 46.6255   16.7404   319.218   -3.8672   271.014   31.407    
1.852     -9148.04  -445.952  9419.28   0         -8.85795E-6 46.5984   16.7392   319.21    -3.92627  271.097   31.3952   
1.862     -9182.35  -443.099  9419.08   0         1.36135E-5 46.5737   16.7438   319.21    -3.97805  271.082   31.4034   
1.872     -9218.78  -441.997  9418.69   0         -2.88168E-5 46.5458   16.7508   319.211   -4.03545  271.087   31.3972   
1.882     -9258.23  -438.774  9418.77   0         0.00097637 46.5202   16.7496   319.205   -4.09194  271.08    31.4025   
1.892     -9299.79  -437.09   9418.34   0         3.07567E-5 46.4949   16.7503   319.199   -4.14081  271.084   31.396    
1.902     -9338.83  -435.536  9418.47   0         -1.41638E-5 46.4745   16.7498   319.201   -4.18527  271.076   31.4167   
1.913     -9376.06  -433.398  9419.18   0         8.38544E-6 46.4476   16.7501   319.199   -4.24104  271.125   31.5067   
1.923     -9410.34  -432.07   9419.72   0         -5.32382E-6 46.4148   16.7499   319.192   -4.30782  271.118   31.4889   
1.933     -9439.82  -428.855  9419.74   0         2.49061E-6 46.3719   16.75     319.189   -4.39578  271.11    31.539    
1.943     -9477.38  -426.565  9419.29   0         2.84127E-7 46.3267   16.75     319.191   -4.49161  271.18    31.8839   
1.953     -9514.74  -424.175  9419.69   0         -3.66679E-6 46.2905   16.75     319.186   -4.56584  271.227   31.9028   
1.963     -9540.8   -422.035  9419.1    0         8.16556E-6 46.2622   16.75     319.179   -4.62567  271.225   31.9028   
1.973     -9569.68  -419.092  9419.24   0         -1.43918E-5 46.2332   16.75     319.181   -4.68609  271.245   32.0759   
1.983     -9594.68  -415.448  9418.67   0         2.32497E-5 46.2037   16.75     319.179   -4.7468   271.321   32.1066   
1.993     -9629     -413.576  9418.93   0         -3.64132E-5 46.1736   16.75     319.171   -4.81266  271.377   32.0961   
2.003     -9658.2   -410.686  9418.47   0         5.77407E-5 46.1469   16.75     319.169   -4.86593  271.408   32.1031   
2.013     -9689.74  -409.189  9418.96   0         -9.99716E-5 46.1168   16.75     319.171   -4.92949  271.419   32.0968   
2.023     -9723.68  -405.063  9419.02   0         0.000240343 46.0865   16.75     319.165   -4.99113  271.434   32.1033   
2.033     -9763.59  -404.055  9418.84   0         0.000906521 46.0584   16.75     319.159   -5.04859  271.479   32.0954   
2.043     -9799.17  -401.371  9419.15   0         -0.000153415 46.0354   16.75     319.161   -5.09577  271.47    32.1069   
2.053     -9830.38  -399.991  9419.97   0         7.77787E-5 46.0054   16.75     319.158   -5.1552   271.527   32.0834   
2.063     -9854.42  -397.725  9420.29   0         -4.72507E-5 45.9654   16.75     319.15    -5.23906  271.5     32.2449   
2.073     -9877.83  -393.777  9419.97   0         3.01866E-5 45.9094   16.75     319.15    -5.35511  271.563   32.4518   
2.083     -9910.59  -391.396  9419.52   0         -1.92893E-5 45.8516   16.75     319.15    -5.4734   271.624   32.3357   
2.093     -9939.11  -388.672  9419.39   0         1.19601E-5 45.8075   16.75     319.142   -5.56384  271.603   32.6535   
2.103     -9956.8   -386.325  9418.58   0         -6.99918E-6 45.7739   16.75     319.139   -5.63701  271.588   33.0436   
2.113     -9978.9   -382.607  9418.43   0         3.72561E-6 45.7435   16.75     319.141   -5.69838  271.654   32.9793   
2.123     -9997.66  -379.191  9417.8    0         -1.6809E-6 45.7162   16.75     319.135   -5.75698  271.723   33.0103   
2.133     -10026.1  -376.793  9417.85   0         0         45.6867   16.75     319.129   -5.81682  271.687   32.9953   
2.143     -10048.7  -374.187  9417.37   0         0         45.6604   16.75     319.131   -5.87239  271.719   32.9957   
2.153     -10073.2  -371.706  9417.59   0         0         45.6241   16.75     319.127   -5.94426  271.729   33.0426   
2.163     -10101.9  -368.02   9417.1    0         0         45.5857   16.75     319.12    -6.02177  271.698   33.3175   
2.173     -10140.7  -366.121  9417.24   0         0         45.5513   16.75     319.12    -6.09201  271.718   33.2721   
2.183     -10169.1  -363.438  9417.69   0         0         45.5252   16.75     319.119   -6.14334  271.72    33.3951   
2.193     -10193    -361.949  9419.05   0         0         45.4901   16.75     319.111   -6.21372  271.718   34.3417   
2.203     -10203.9  -358.143  9419.56   0         0         45.4429   16.75     319.11    -6.31132  271.699   34.4144   
2.213     -10217.3  -354.495  9419.65   0         0         45.3709   16.75     319.109   -6.45948  271.754   34.4029   
2.223     -10237    -351.934  9419.26   0         0         45.2962   16.75     319.101   -6.61475  271.811   35.0921   
2.233     -10258.9  -349.244  9418.86   0         0         45.2385   16.75     319.1     -6.73406  271.784   35.2308   
2.243     -10265.7  -345.522  9417.87   0         0         45.2044   16.75     319.099   -6.80658  271.771   35.1796   
2.253     -10277    -342.032  9417.84   0         0         45.1802   16.75     319.09    -6.854    271.844   35.2892   
2.263     -10283.2  -337.622  9417.6    0         0         45.1689   16.75     319.091   -6.87931  271.847   35.2929   
2.273     -10291.7  -335.619  9417.86   0         0         45.1518   16.7497   319.088   -6.91145  271.81    35.3126   
2.283     -10294.6  -332.157  9418.33   0         0         45.1318   16.7411   319.079   -6.9503   271.873   35.2805   
2.293     -10300.7  -329.629  9418.49   0         0         45.0983   16.7397   319.081   -7.01588  271.796   35.3321   
2.303     -10314.5  -326.306  9418.41   0         0         45.0667   16.7401   319.077   -7.08075  271.797   35.2322   
2.313     -10333.4  -323.814  9418.68   0         0         45.0402   16.7399   319.069   -7.13146  271.781   35.7474   
2.323     -10341.9  -322.582  9419.45   0         0         45.0275   16.74     319.071   -7.15337  271.81    36.3081   
2.333     -10341.3  -319.84   9421.03   0         0         45.0063   16.74     319.066   -7.19493  271.786   36.1013   
2.343     -10332.6  -317.41   9422.12   0         2.77248E-6 44.9698   16.74     319.059   -7.2681   271.759   36.5251   
2.353     -10326.1  -314.129  9422.68   0         -7.00497E-6 44.9096   16.74     319.061   -7.39206  271.805   37.0682   
2.363     -10322.7  -312.239  9422.48   0         1.4044E-5 44.8442   16.74     319.057   -7.52708  271.827   36.9418   
2.373     -10322.6  -310.733  9422.23   0         -2.49479E-5 44.7894   16.74     319.049   -7.64027  271.785   37.153    
2.383     -10308.8  -306.802  9421.15   0         4.11933E-5 44.7537   16.74     319.051   -7.7072   271.825   37.5116   
2.393     -10306.4  -305.049  9420.97   0         -6.51677E-5 44.7307   16.74     319.045   -7.75942  271.863   37.5054   
2.403     -10301.6  -300.433  9420.53   0         0.000101546 44.7212   16.7399   319.039   -7.77443  271.881   37.4535   
2.413     -10296.1  -299.577  9420.42   0         -0.000161831 44.7039   16.7401   319.041   -7.80111  271.848   37.2      
2.423     -10289.7  -295.582  9420.74   0         0.000285184 44.6841   16.7398   319.037   -7.83865  271.885   37.1927   
2.433     -10287.7  -294.018  9420.31   0         -0.000744285 44.6469   16.7403   319.029   -7.91094  271.81    37.2478   
2.443     -10292.7  -290.433  9420.6    0         -0.00164822 44.614    16.7396   319.03    -7.97572  271.792   37.8551   
2.453     -10296.5  -288.488  9420.53   0         0.000373742 44.5836   16.7408   319.029   -8.03403  271.77    37.914    
2.463     -10306.2  -286.862  9421.81   0         -0.000195448 44.5651   16.7363   319.021   -8.0668   271.756   37.9007   
2.473     -10297.4  -283.702  9422.68   0         0.000119787 44.545    16.7292   319.019   -8.10433  271.787   38.9135   
2.483     -10303.1  -282.491  9424.19   0         -7.54732E-5 44.5093   16.7304   319.021   -8.17382  271.745   39.1601   
2.493     -10299.6  -278.737  9424.91   0         4.57081E-5 44.4681   16.7298   319.015   -8.25457  271.736   39.0507   
2.503     -10295.7  -276.986  9424.63   0         -2.15059E-5 44.4152   16.7302   319.009   -8.36207  271.818   39.4871   
2.513     -10294.5  -275.42   9424.45   0         6.96851E-7 44.3629   16.7299   319.011   -8.4698   271.797   39.6209   
2.523     -10285.5  -271.948  9423.52   0         2.02132E-5 44.3126   16.7301   319.009   -8.56956  271.792   39.5938   
2.533     -10280.7  -270.306  9422.96   0         -4.21616E-5 44.2668   16.73     319.001   -8.66298  271.813   39.5502   
2.543     -10273.7  -265.907  9422.16   0         7.17081E-5 44.2314   16.73     318.999   -8.73545  271.847   39.4779   
2.553     -10264.9  -264.533  9421.57   0         -0.000111559 44.1979   16.73     319.001   -8.80235  271.798   39.5199   
2.563     -10263.2  -260.999  9421.63   0         0.000184636 44.1706   16.73     318.997   -8.856    271.819   39.5112   
2.573     -10251.7  -259.116  9420.79   0         -0.000392644 44.144    16.73     318.99    -8.9058   271.713   39.6676   
2.583     -10252.6  -257.109  9420.87   0         -0.00172422 44.1141   16.73     318.99    -8.96585  271.682   39.4807   
2.593     -10248.7  -254.244  9420.82   0         -0.000369202 44.0885   16.73     318.991   -9.01318  271.68    40.1495   
2.603     -10258.4  -253.674  9421.83   0         -0.00079539 44.0623   16.73     318.984   -9.0606   271.659   41.2364   
2.613     -10248.4  -251.216  9422.41   0         0.000455303 44.0432   16.73     318.979   -9.0955   271.662   41.003    
2.623     -10252.1  -249.795  9423.56   0         -0.000769328 44.0009   16.7301   318.98    -9.18032  271.614   41.2897   
2.633     -10252.7  -248.535  9424.86   0         -0.000523707 43.9632   16.7295   318.98    -9.25823  271.634   41.7041   
2.643     -10246.3  -246.385  9424.58   0         -0.000897424 43.9093   16.7208   318.973   -9.36454  271.724   41.7059   
2.653     -10241.9  -244.105  9424.3    0         5.30913E-5 43.8555   16.7198   318.969   -9.47336  271.708   41.6716   
2.663     -10236.4  -242.294  9423.2    0         -0.00011065 43.7979   16.7201   318.971   -9.58814  271.681   41.4987   
2.673     -10224.7  -239.117  9422.32   0         0.000197644 43.751    16.7199   318.969   -9.68365  271.704   41.5048   
2.684     -10208.7  -238.045  9420.75   0         -0.000340436 43.7008   16.72     318.961   -9.78797  271.741   41.4774   
2.694     -10192.5  -233.731  9419.94   0         0.000667687 43.6558   16.72     318.959   -9.88343  271.7     41.1271   
2.704     -10182.8  -231.659  9418.92   0         -0.00247953 43.6073   16.72     318.961   -9.97829  271.722   41.095    
2.714     -10178.9  -228.993  9418.84   0         -0.00252478 43.578    16.72     318.956   -10.0348  271.668   41.1106   
2.724     -10164.9  -227.059  9418.25   0         -0.00273096 43.5566   16.72     318.95    -10.0761  271.593   42.1511   
2.734     -10165.8  -225.348  9419.37   0         -0.00137695 43.5382   16.72     318.95    -10.1086  271.615   42.511    
2.744     -10162.3  -223.655  9420.1    0         -0.00341534 43.5228   16.72     318.951   -10.134   271.593   42.2715   
2.754     -10168.5  -223.158  9421.38   0         0.000107129 43.5056   16.72     318.944   -10.1652  271.59    43.5955   
2.764     -10166.2  -221.087  9422.29   0         -0.00195263 43.4824   16.72     318.939   -10.2088  271.562   44.0718   
2.774     -10170.3  -220.622  9423.93   0         -0.00293348 43.4419   16.72     318.94    -10.289   271.582   44.0026   
2.784     -10167.2  -219.517  9424.29   0         -0.00027829 43.3908   16.72     318.939   -10.3894  271.61    43.6167   
2.794     -10164.4  -216.335  9424.15   0         -0.000657081 43.331    16.72     318.931   -10.5114  271.649   43.2037   
2.804     -10159.4  -215.799  9423.2    0         0.000308332 43.2684   16.72     318.929   -10.637   271.612   43.3812   
2.814     -10153.7  -212.662  9422.65   0         -0.000192773 43.2128   16.72     318.931   -10.7514  271.653   43.041    
2.824     -10136.6  -211.564  9421.29   0         0.000171666 43.161    16.72     318.928   -10.8589  271.683   42.7615   
2.834     -10119.8  -209.357  9420.44   0         -0.000459713 43.1079   16.72     318.92    -10.9681  271.658   42.8236   
2.844     -10099.5  -205.425  9419.14   0         -0.000934831 43.0532   16.7201   318.92    -11.0811  271.662   42.8192   
2.854     -10093    -204.414  9418.07   0         0.00080045 43.0053   16.7195   318.921   -11.1782  271.683   43.0919   
2.864     -10086.8  -201.339  9417.4    0         -0.00203339 42.9761   16.7107   318.917   -11.2357  271.568   42.8453   
2.874     -10087.1  -201.697  9417.63   0         -0.00148439 42.9627   16.7098   318.91    -11.2585  271.6     43.5909   
2.884     -10087.7  -200.189  9418.73   0         -0.00147752 42.9602   16.7101   318.91    -11.2613  271.604   45.6164   
2.894     -10085.3  -197.949  9419.65   0         -0.00256673 42.9507   16.71     318.911   -11.2756  271.601   45.4214   
2.904     -10099    -198.281  9421.02   0         -0.00275062 42.9259   16.71     318.907   -11.3178  271.548   45.6069   
2.914     -10104.1  -196.439  9421.92   0         -0.000761211 42.8948   16.71     318.899   -11.3797  271.542   45.9678   
2.924     -10110.5  -197.16   9422.72   0         -0.00259222 42.8416   16.71     318.9     -11.484   271.638   46.0245   
2.934     -10113.1  -196.123  9422.96   0         -0.00269242 42.7865   16.71     318.9     -11.5973  271.6     45.9349   
2.944     -10103.8  -193.312  9421.73   0         -0.00185492 42.7173   16.71     318.899   -11.7371  271.579   44.9075   
2.954     -10104.9  -192.099  9420.89   0         -0.00120508 42.6476   16.71     318.89    -11.8798  271.601   44.7703   
2.964     -10092    -189.554  9419.61   0         0.000747201 42.586    16.71     318.89    -12.0079  271.653   44.8157   
2.974     -10068.5  -188.866  9418.78   0         -0.000907034 42.5243   16.71     318.89    -12.1397  271.645   44.7872   
2.984     -10045.6  -185.274  9417.6    0         -0.00267793 42.4547   16.7099   318.889   -12.2842  271.577   44.8125   
2.994     -10036.2  -182.457  9416.53   0         -0.00301641 42.3944   16.7101   318.88    -12.4099  271.631   44.7682   
3.004     -10030    -180.192  9415.14   0         -0.00298329 42.3558   16.7098   318.88    -12.488   271.602   45.5809   
3.014     -10038.3  -179.031  9415.49   0         -0.00559392 42.3467   16.7103   318.88    -12.501   271.529   46.1995   
3.024     -10032    -178.621  9416.11   0         -0.00301103 42.3594   16.7096   318.88    -12.4731  271.521   45.7269   
3.034     -10028.1  -176.171  9417.76   0         -0.00113079 42.3545   16.7108   318.871   -12.4714  271.535   47.6207   
3.044     -10026.1  -175.376  9418.72   0         -0.00411117 42.3291   16.7039   318.87    -12.5242  271.51    48.899    
3.054     -10049.1  -174.342  9420.35   0         -0.00356146 42.2884   16.6992   318.87    -12.603   271.455   48.627    
3.064     -10044.8  -173.391  9420.51   0         -0.00315155 42.2472   16.7004   318.871   -12.6814  271.447   48.5543   
3.074     -10049.6  -174.037  9421.71   0         -0.00459453 42.1861   16.6997   318.863   -12.8051  271.542   48.0833   
3.084     -10042.8  -171.96   9421.54   0         -0.00442757 42.1268   16.7002   318.86    -12.9271  271.527   48.3147   
3.094     -10045.4  -170.47   9421.29   0         -0.00349417 42.0589   16.6999   318.86    -13.0665  271.483   47.8716   
3.104     -10036.1  -168.003  9420.23   0         -0.00438353 42.0053   16.7001   318.861   -13.1767  271.511   47.2459   
3.114     -10026.7  -168.082  9419.43   0         -0.00258603 41.9491   16.7      318.854   -13.2956  271.6     47.3323   
3.124     -10000.7  -165.675  9418.48   0         0.00038745 41.8946   16.7      318.849   -13.4091  271.555   47.2677   
3.134     -9983.51  -165.419  9417.41   0         -0.00165313 41.8228   16.7      318.85    -13.5575  271.49    47.3385   
3.144     -9970.47  -162.032  9416.11   0         -0.00264192 41.7658   16.7      318.851   -13.6757  271.579   47.2319   
3.154     -9958.94  -162.125  9414.8    0         -0.00194612 41.7179   16.7      318.844   -13.7747  271.519   47.5412   
3.164     -9965.89  -161.888  9415.32   0         -0.00475653 41.6966   16.7      318.839   -13.8166  271.505   49.2584   
3.174     -9954.75  -161.564  9416.23   0         -0.00264221 41.6919   16.7      318.84    -13.8165  271.466   49.2934   
3.184     -9946.36  -161.361  9417.14   0         -0.00159941 41.6792   16.7      318.841   -13.8419  271.439   49.3799   
3.194     -9949.5   -159.63   9418.7    0         -0.002019 41.6544   16.7      318.834   -13.8879  271.434   51.3836   
3.204     -9954.99  -160.837  9419.26   0         -0.0022322 41.6219   16.7      318.829   -13.9499  271.467   51.6454   
3.214     -9959.06  -161.173  9420.36   0         -0.00212657 41.5906   16.7      318.83    -14.0115  271.425   51.5897   
3.224     -9946.28  -160.174  9420.24   0         -0.00154105 41.546    16.7      318.831   -14.1002  271.453   50.8275   
3.234     -9947.2   -160.436  9421.31   0         -0.00277238 41.4868   16.7      318.826   -14.2208  271.493   50.5147   
3.244     -9940.05  -157.968  9421.15   0         -0.00234418 41.432    16.7      318.819   -14.3316  271.433   50.6817   
3.254     -9932.71  -156.393  9420.58   0         -0.00272484 41.3757   16.7      318.82    -14.4482  271.443   50.0308   
3.264     -9925.07  -155.783  9420.34   0         -0.00233073 41.3265   16.7      318.82    -14.5516  271.533   49.7479   
3.274     -9903.03  -153.433  9419.35   0         -0.00230503 41.2743   16.6999   318.817   -14.6562  271.522   49.8213   
3.284     -9890.77  -153.972  9418.91   0         -0.00173403 41.2191   16.7001   318.81    -14.7746  271.446   49.9602   
3.294     -9871.5   -150.481  9417.24   0         -0.00321807 41.165    16.6999   318.81    -14.8859  271.506   50.3302   
3.304     -9867.74  -150.406  9417.02   0         -0.00397846 41.1169   16.7002   318.81    -14.9864  271.449   49.9942   
3.314     -9862.16  -150.732  9416.82   0         -0.00502256 41.0859   16.6996   318.808   -15.0465  271.433   51.2346   
3.324     -9859.43  -148.847  9417.96   0         -0.00440396 41.0681   16.7007   318.799   -15.0814  271.431   52.8634   
3.334     -9854.15  -150.105  9418.72   0         -0.00365131 41.0494   16.6932   318.8     -15.115   271.397   52.3752   
3.344     -9864.03  -149.08   9420.56   0         -0.00361628 41.0284   16.6893   318.8     -15.1529  271.363   53.1847   
3.354     -9863.98  -149.625  9421.26   0         -0.0048009 41.0095   16.6904   318.8     -15.1862  271.388   54.2487   
3.364     -9874.22  -150.953  9422.48   0         -0.00448481 40.982    16.6898   318.792   -15.2371  271.349   54.2185   
3.374     -9863.64  -149.738  9422.24   0         -0.00378192 40.9499   16.6901   318.79    -15.3038  271.385   54.0201   
3.384     -9865.92  -150.282  9422.7    0         -0.00420942 40.8943   16.6899   318.79    -15.4159  271.439   53.1495   
3.394     -9860.35  -148.848  9422.96   0         -0.00464698 40.8392   16.6901   318.79    -15.5271  271.385   53.2436   
3.404     -9852.89  -147.989  9422.2    0         -0.00482637 40.7779   16.69     318.788   -15.6556  271.37    53.1325   
3.414     -9838.81  -146.08   9421.6    0         -0.00446647 40.7209   16.69     318.78    -15.7779  271.465   52.8329   
3.424     -9826.39  -145.202  9420.59   0         -0.00409498 40.6561   16.69     318.78    -15.9109  271.488   52.7761   
3.434     -9813.17  -143.496  9419.81   0         -0.00520981 40.6026   16.69     318.78    -16.0276  271.408   52.8236   
3.445     -9794.36  -143.098  9418.1    0         -0.00580764 40.5485   16.69     318.781   -16.1358  271.423   52.7669   
3.455     -9789.44  -141.728  9417.96   0         -0.00509439 40.502    16.69     318.778   -16.232   271.455   52.8459   
3.465     -9775.47  -142.288  9417.59   0         -0.00412928 40.4685   16.69     318.77    -16.299   271.407   52.7266   
3.475     -9767.87  -141.504  9417.74   0         -0.00437073 40.4354   16.69     318.77    -16.3646  271.366   54.9754   
3.485     -9769.95  -141.287  9418.51   0         -0.00527015 40.4107   16.69     318.77    -16.4137  271.342   55.8089   
3.495     -9762.19  -141.248  9419.37   0         -0.00445777 40.3905   16.69     318.77    -16.4504  271.297   55.4128   
3.505     -9759.67  -140.589  9420.44   0         -0.00492591 40.3597   16.69     318.769   -16.5083  271.35    56.6142   
3.515     -9757     -140.62   9421.25   0         -0.00351497 40.3263   16.69     318.761   -16.5758  271.256   57.0395   
3.525     -9758.27  -140.166  9421.82   0         -0.00394094 40.2855   16.69     318.76    -16.6537  271.306   57.0434   
3.535     -9755.16  -139.318  9421.64   0         -0.00347319 40.2481   16.69     318.76    -16.7306  271.335   56.486    
3.545     -9754.49  -138.782  9422.38   0         -0.00474847 40.2064   16.69     318.76    -16.8155  271.375   55.8756   
3.555     -9749.18  -138.613  9423.09   0         -0.00380303 40.1669   16.69     318.761   -16.899   271.268   56.1022   
3.565     -9731.16  -137.623  9423.14   0         -0.00405695 40.1163   16.69     318.753   -17.0011  271.392   55.7163   
3.575     -9719.58  -135.823  9422.31   0         -0.00410337 40.0509   16.69     318.749   -17.1346  271.361   55.364    
3.585     -9717.95  -134.909  9421.87   0         -0.00386952 39.9901   16.69     318.75    -17.2641  271.38    55.4162   
3.595     -9699.56  -133.264  9420.37   0         -0.00415417 39.9215   16.69     318.75    -17.4056  271.23    55.4208   
3.605     -9692.17  -133.683  9420.34   0         -0.00442541 39.8344   16.69     318.749   -17.5875  270.441   55.6678   
3.615     -9675.74  -132.707  9420.05   0         -0.00380546 39.7294   16.69     318.74    -17.8045  270.988   55.4854   
3.625     -9659.77  -131.431  9419.76   0         -0.00337603 39.6006   16.69     318.74    -18.0699  271.329   56.0272   
3.635     -9652.03  -130.59   9419.23   0         -0.00159637 39.4602   16.69     318.739   -18.3624  271.003   57.9695   
3.645     -9646.83  -127.996  9419.1    0         -0.00188528 39.3253   16.69     318.741   -18.641   270.775   57.8219   
3.655     -9630.42  -128.749  9419.16   0         -0.00254499 39.1937   16.69     318.736   -18.9137  271.036   58.0994   
3.665     -9609.85  -128.375  9419.35   0         -0.00291696 39.0541   16.69     318.729   -19.2021  271.18    59.71     
3.675     -9589.73  -127.321  9419.07   0         -0.00229252 38.9004   16.69     318.731   -19.5193  270.978   59.8247   
3.685     -9577.23  -126.432  9418.3    0         -0.00302684 38.7429   16.69     318.73    -19.8442  270.979   59.7735   
3.695     -9571.45  -125.314  9417.97   0         -0.00408654 38.5913   16.69     318.73    -20.1572  271.152   59.202    
3.705     -9559.98  -125.668  9416.87   0         -0.00257313 38.4502   16.69     318.722   -20.4504  271.155   59.0605   
3.715     -9537.22  -124.112  9416.52   0         -0.000775665 38.3007   16.69     318.72    -20.7553  271.089   59.1359   
3.725     -9504.93  -123.367  9415.44   0         -0.00177251 38.1253   16.6899   318.72    -21.1188  271.122   58.4177   
3.735     -9496.22  -122.398  9415.34   0         -0.00257019 37.932    16.6901   318.72    -21.5216  271.205   58.1179   
3.745     -9468.07  -120.326  9413.78   0         -0.00324763 37.7409   16.6899   318.718   -21.9183  271.177   58.2711   
3.755     -9450.63  -120.095  9413.02   0         -0.00412969 37.5409   16.6902   318.71    -22.3305  271.176   58.2704   
3.765     -9432.65  -117.871  9412.26   0         -0.00434775 37.3506   16.6896   318.71    -22.7195  271.093   58.7148   
3.775     -9414.7   -117.852  9411.32   0         -0.00470193 37.1615   16.6908   318.709   -23.1112  270.725   58.1165   
3.785     -9405.51  -116.122  9411.13   0         -0.002936 36.9786   16.6866   318.711   -23.4866  271.006   60.7427   
3.795     -9387.11  -114.905  9410.37   0         -0.00134661 36.7959   16.6793   318.703   -23.8629  271.107   63.0649   
3.805     -9375.58  -114.336  9410.22   0         -0.000731405 36.5969   16.6804   318.699   -24.2676  270.913   62.5147   
3.815     -9360.42  -112.449  9409.99   0         -7.38456E-5 36.3958   16.6798   318.7     -24.6871  270.907   62.8205   
3.825     -9340.11  -111.343  9409.19   0         5.21743E-5 36.1726   16.6801   318.7     -25.1461  271.045   62.6167   
3.835     -9323.01  -109.899  9408.13   0         -0.00102147 35.9344   16.6799   318.692   -25.6347  271.008   62.7786   
3.845     -9313.13  -107.793  9406.74   0         5.53779E-5 35.6941   16.6801   318.69    -26.1342  271.02    62.5175   
3.855     -9299.95  -107.362  9405.02   0         -7.22774E-5 35.4572   16.68     318.689   -26.6249  270.992   62.057    
3.865     -9289.1   -106.035  9404.5    0         0.000130203 35.2203   16.68     318.679   -27.1149  271.12    62.1601   
3.875     -9258.77  -104.802  9403.31   0         -0.000681801 34.9781   16.68     318.681   -27.6199  270.784   61.9005   
3.885     -9244.03  -104.065  9403.39   0         -0.00101351 34.7116   16.68     318.672   -28.169   270.693   60.9907   
3.895     -9221.2   -101.33   9402.07   0         -0.00180206 34.4427   16.68     318.67    -28.7264  271.044   61.0051   
3.905     -9208.21  -100.433  9401.2    0         -0.00350629 34.1634   16.68     318.663   -29.3043  271.072   61.0011   
3.915     -9190.42  -101.068  9400.75   0         -0.00305385 33.8931   16.68     318.66    -29.8627  270.934   61.0952   
3.925     -9173.28  -100.017  9400.7    0         -0.00412784 33.6167   16.68     318.653   -30.4363  270.914   61.0962   
3.935     -9153.23  -98.7213  9401.03   0         -0.00312685 33.3353   16.68     318.65    -31.0143  271.083   61.1366   
3.945     -9142.41  -97.2338  9401.37   0         -0.00291459 33.0439   16.68     318.644   -31.6137  271.077   63.0447   
3.955     -9132.16  -95.3164  9401.79   0         -0.00369118 32.7575   16.68     318.64    -32.2089  270.988   63.5411   
3.965     -9120.91  -94.8399  9401.79   0         -1.88126E-5 32.4661   16.68     318.634   -32.8083  270.944   63.2553   
3.975     -9107.57  -91.9006  9401.69   0         -0.00161241 32.1656   16.68     318.629   -33.4275  270.591   65.0946   
3.985     -9088.65  -90.8088  9401.46   0         -0.000729558 31.8524   16.68     318.623   -34.0789  270.814   65.7135   
3.995     -9072.65  -89.096   9400.85   0         -0.00389722 31.5198   16.68     318.619   -34.7633  270.967   65.5583   
4.005     -9051.73  -87.216   9400.16   0         -0.00195391 31.1806   16.68     318.613   -35.468   270.833   65.408    
4.015     -9031.46  -84.8794  9399.26   0         -0.000146837 30.8254   16.68     318.608   -36.2018  270.771   65.1027   
4.025     -9006.86  -81.9562  9398.57   0         -0.00012812 30.4695   16.68     318.602   -36.9394  270.883   65.3233   
4.035     -8976.43  -79.5613  9397.53   0         0.000101748 30.1027   16.68     318.597   -37.7019  270.956   64.6244   
4.045     -8955.28  -77.8655  9396.66   0         -6.86698E-5 29.7362   16.68     318.591   -38.461   270.888   64.0038   
4.055     -8932.42  -74.0393  9394.92   0         4.69397E-5 29.3631   16.68     318.584   -39.2331  270.868   64.1639   
4.065     -8909.69  -73.1311  9393.55   0         -2.59428E-5 29.0265   16.68     318.58    -39.9302  270.487   63.9596   
4.075     -8887.49  -72.247   9394.14   0         1.23379E-5 28.733    16.68     318.575   -40.5362  270.695   63.7874   
4.085     -8877.38  -70.5047  9394.29   0         -2.69256E-6 28.4122   16.68     318.57    -41.1943  270.933   63.8016   
4.095     -8864.46  -69.1657  9394.84   0         -1.5472E-7 28.0779   16.68     318.567   -41.8839  270.848   63.8257   
4.105     -8841.49  -66.2445  9394.39   0         2.16307E-6 27.6867   16.68     318.56    -42.6908  270.727   64.0491   
4.115     -8822.89  -64.2231  9392.63   0         0         27.2645   16.68     318.556   -43.5694  270.819   63.9091   
4.125     -8785.89  -62.0741  9390.96   0         0         26.8204   16.68     318.549   -44.4911  270.942   64.3389   
4.135     -8749.25  -58.6227  9388.43   0         0         26.327    16.6801   318.543   -45.5162  270.812   66.2296   
4.145     -8720.57  -55.8188  9385.31   0         0         25.8314   16.6799   318.536   -46.5435  270.911   66.1384   
4.155     -8677.99  -53.915   9384.58   0         0         25.315    16.6802   318.53    -47.6127  270.506   66.377    
4.165     -8651.61  -51.0844  9383.88   0         0         24.809    16.6797   318.523   -48.6544  270.609   68.3359   
4.175     -8641.45  -49.5231  9384.32   0         0         24.4379   16.6807   318.518   -49.4149  270.901   68.5514   
4.185     -8627.18  -49.7902  9385.53   0         0         24.1297   16.6773   318.51    -50.0453  270.785   68.4848   
4.195     -8626.27  -48.7026  9385.39   0         0         23.7617   16.6694   318.502   -50.8004  270.683   70.1941   
4.206     -8621.28  -46.9106  9384.79   0         0         23.3436   16.6703   318.493   -51.662   270.788   70.5951   
4.216     -8595.55  -43.8405  9383.97   0         0         22.88     16.6698   318.485   -52.6234  270.892   70.427    
4.226     -8579.73  -41.2838  9383.15   0         0         22.4162   16.6701   318.474   -53.5867  270.884   71.0461   
4.236     -8573.99  -39.1877  9381.4    0         0         22.0184   16.67     318.464   -54.4117  270.446   71.2255   
4.246     -8570.1   -39.5332  9381.99   0         0         21.6537   16.6699   318.453   -55.1692  270.647   71.1991   
4.256     -8558.66  -37.5613  9384.55   0         0         21.2309   16.6701   318.44    -56.038   270.956   71.1408   
4.266     -8566.47  -36.1006  9386.95   0         0         20.7788   16.6697   318.427   -56.9716  270.869   71.0975   
4.276     -8571.31  -35.7229  9389.44   0         0         20.3528   16.6705   318.413   -57.8562  270.708   71.0851   
4.286     -8557.35  -33.206   9393.44   0         0         19.9045   16.6691   318.4     -58.7842  270.856   71.2367   
4.296     -8514.27  -28.9841  9396.28   0         0         19.3762   16.6735   318.39    -59.8818  270.99    71.4396   
4.306     -8492.51  -23.8152  9395.39   0         0         18.8408   16.6803   318.383   -60.9987  270.536   71.3579   
4.316     -8470.41  -19.1047  9394.05   0         0         18.4105   16.6804   318.375   -61.8887  270.679   71.5704   
4.326     -8439.86  -10.4755  9392.95   0         0         17.9887   16.6772   318.37    -62.7543  270.976   71.9694   
4.336     -8436.47  -5.96725  9389.74   0         0         17.5692   16.6693   318.364   -63.6252  270.958   71.8063   
4.346     -8423.14  -3.82242  9386.8    0         0         17.137    16.6702   318.359   -64.5141  270.746   72.2592   
4.356     -8385.62  -4.38536  9387.57   0         0         16.6707   16.6701   318.354   -65.4769  270.943   73.5073   
4.366     -8332.27  7.33699   9380.4    0         0         16.0624   16.6695   318.345   -66.7428  270.725   73.2832   
4.376     -8296.08  6.38789   9371.83   0         0         15.5708   16.6737   318.341   -67.7567  270.627   73.7382   
4.386     -8152.47  20.3919   9360.14   0         0         14.956    16.6817   318.335   -69.0423  270.92    75.5843   

**END