**HEADER
RELEASE   Release of TYDEX-Format                 1.3
MEASID    Measurement ID                          long_2p7_03fz1_00cam0_60v0_00al0_01
SUPPLIER  Data Supplier                           ika-fka / Flattrac / friederichs
DATE      Date                                    03/02/20
CLCKTIME  Clocktime                               11:09

**COMMENTS
------------------------------------
Pure longitudinal slip data for
Bridgestone Potenza S001 MO 245/50R18 100W DOT4918
------------------------------------

**CONSTANTS
LOCATION  Location                      -         ika-fka, Aachen
MANUFACT  Tyre brand name               -         Bridgestone
IDENTITY  Commercial name               -         Potenza S001 MO
TYREMASS  Tyre mass                     kg        11.95
OVALLDIA  Measured outside diameter     m         0.70798
NOMDIAME  Nominal diameter of tyre      m         0.7022
NOMWIDTH  Nominal section width of tyre m         0.245
ASPRATIO  Nominal aspect ratio          -         0.5
SPEEDSYM  Speed symbol                  -         W
LOADIND   Load index                    -         100
TYROTIN   Tyre rot. inertia about YC    kgm2      1.233
RIMDIAME  Nominal rim diameter          m         0.4572
RIMWIDTH  Rim width                     m         0.2032
RIMROTIN  Rim rotational inertia        kgm2      0.386
TESTRIG   Test rig                      -         FlatTrac CT+
TRGROTIN  Test rig rot. inertia         kgm2      -
CURVTRSF  Curvature of track surface    1/m       0
TRCKSURF  Surface of Track              -         Korund P120
TRCKCOND  Condition of Track Surface    -         dry
SLIPANGL  Slip angle                    deg       0
INCLANGL  Inclination angle             deg       0

**MEASURCHANNELS
RUNTIME   Running time                  s         1         0         0
FX        Longitudinal Force            N         1         0         0
FYW       Lateral Force                 N         1         0         0
FZW       Vertical Force                N         1         0         0
INCLANGL  Inclination angle             deg       1         0         0
SLIPANGL  Slip angle                    deg       1         0         0
WHROTSPD  WHEEL rotation speed          rad/s     1         0         0
TRAJVELW  Trajectory velocity           m/s       1         0         0
DSTGRWHC  Dist. ground - WHEEL centre   mm        1         0         0
LONGSLIP  Longitudinal slip             %         1         0         0
INFLPRES  Inflation pressure            kPa       1         0         0
TRDTEMP   Tread surface temperature     deg C     1         0         0

**MEASURDATA
0         1005.21   -162.423  3172.69   0         0         48.3429   16.7131   342.21    0.792073  270.3     30.5      
0.01      988.458   -159.269  3187.38   0         0         48.322    16.714    342.21    0.735106  270.3     30.5      
0.02      969.616   -162.209  3200.4    0         0         48.3192   16.7094   342.21    0.755347  270.3     30.5      
0.03      964.735   -165.624  3193.42   0         0         48.3208   16.7103   342.21    0.761439  270.3     30.5      
0.04      952.251   -167.395  3184.24   0         0         48.3126   16.7098   342.21    0.755405  270.3     30.5      
0.05      936.549   -166.762  3171.52   0         0         48.309    16.7101   342.21    0.750533  270.301   30.5      
0.06      918.534   -165.58   3165.36   0         0         48.3001   16.7097   342.21    0.739022  270.299   30.5      
0.07      894.47    -164.733  3166.08   0         0         48.2875   16.7044   342.21    0.719294  270.302   30.5      
0.08      872.652   -164.493  3168.51   0         0         48.2789   16.6995   342.21    0.706025  270.297   30.5      
0.09      853.978   -164.491  3170.23   0         0         48.2698   16.7002   342.21    0.691106  270.304   30.5      
0.1       833.952   -165.363  3168.92   0         0         48.2607   16.6999   342.21    0.676214  270.294   30.5      
0.11      813.307   -165.474  3168.4    0         0         48.2525   16.7001   342.21    0.661588  270.311   30.5      
0.12      794.723   -166.106  3166.95   0         0         48.2447   16.6999   342.21    0.646459  270.217   30.5      
0.13      774.403   -165.985  3163.86   0         0         48.2352   16.7      342.21    0.629694  270.265   30.5      
0.14      752.241   -165.153  3162.11   0         0         48.2266   16.7      342.21    0.612403  270.298   30.5      
0.15      730.613   -165.829  3160.62   0         0         48.2187   16.7      342.21    0.596702  270.284   30.5      
0.16      709.702   -164.732  3157.87   0         0         48.2105   16.7      342.21    0.579687  270.225   30.5      
0.17      688.042   -164.461  3157.48   0         0         48.2018   16.7      342.21    0.560711  270.275   30.5      
0.181     665.127   -165.097  3160.71   0         0         48.192    16.7      342.21    0.539926  270.309   30.5      
0.191     641.075   -164.59   3161.23   0         0         48.1821   16.7      342.21    0.520404  270.295   30.5      
0.201     617.746   -165.208  3162.67   0         0         48.1739   16.7      342.21    0.50191   270.303   30.5      
0.211     596.01    -165.2    3164.73   0         0         48.1642   16.7      342.21    0.483529  270.299   30.5      
0.221     575.46    -165.416  3166.12   0         0         48.1567   16.7      342.21    0.467103  270.301   30.5      
0.231     553.47    -166.418  3164.34   0         0         48.1485   16.7      342.21    0.450934  270.298   30.5      
0.241     531.618   -166.522  3163.09   0         0         48.1411   16.7      342.21    0.436942  270.221   30.5      
0.251     512.174   -167.255  3160.69   0         0         48.1338   16.7      342.21    0.421695  270.196   30.5      
0.261     490.521   -167.354  3157.84   0         0         48.124    16.7      342.21    0.402695  270.209   30.5      
0.271     467.021   -166.355  3156.5    0         0         48.115    16.7      342.21    0.384158  270.294   30.5      
0.281     444.173   -167.009  3156.2    0         0         48.1061   16.7      342.21    0.366732  270.217   30.5      
0.291     422.03    -166.024  3154.31   0         0         48.0986   16.7      342.21    0.351498  270.241   30.5      
0.301     399.449   -165.631  3154.38   0         0         48.0894   16.7      342.21    0.333442  270.276   30.5      
0.311     376.073   -166.343  3158.32   0         0         48.0781   16.6999   342.21    0.311854  270.302   30.5      
0.321     350.994   -165.864  3159.49   0         0         48.0667   16.7001   342.21    0.290918  270.263   30.5      
0.331     326.309   -166.057  3160.87   0         0         48.0554   16.6998   342.21    0.270035  270.298   30.5      
0.341     303.2     -166.1    3162.89   0         0         48.045    16.7003   342.21    0.253122  270.263   30.5      
0.351     282.043   -166.199  3164.53   0         0         48.0349   16.6996   342.21    0.23616   270.299   30.5      
0.361     259.339   -166.951  3163.28   0         0         48.0232   16.7009   342.21    0.218939  270.266   30.5      
0.371     236.055   -167.178  3163.03   0         0         48.0126   16.6943   342.21    0.203945  270.208   30.5      
0.381     215.546   -167.969  3161.82   0         0         48.0009   16.6892   342.21    0.186172  270.209   30.5      
0.391     193.011   -167.774  3159.25   0         0         47.9872   16.6903   342.21    0.165879  270.205   30.5      
0.401     169.093   -166.813  3157.34   0         0         47.973    16.6899   342.21    0.147683  270.203   30.5      
0.411     145.701   -167.285  3156.23   0         0         47.959    16.6899   342.21    0.129901  270.211   30.5001   
0.421     122.771   -166.322  3153.77   0         0         47.9442   16.6903   342.21    0.11201   270.196   30.4998   
0.431     99.1108   -165.8    3152.43   0         0         47.9281   16.6821   342.21    0.0932514 270.262   30.5004   
0.441     74.9189   -166.586  3155.46   0         0         47.9109   16.6795   342.21    0.0705165 270.238   30.4993   
0.451     49.14     -166.112  3156.15   0         0         47.894    16.6802   342.21    0.0485175 270.26    30.5012   
0.461     23.9063   -166.819  3156.76   0         0         47.8764   16.68     342.21    0.0275526 270.276   30.4981   
0.471     -0.710039 -166.844  3158.77   0         0         47.8589   16.6724   342.21    0.00920991 270.289   30.5031   
0.481     -23.5579  -167.163  3160.19   0         0         47.8429   16.6691   342.21    -0.0102776 270.263   30.495    
0.491     -47.3752  -168.141  3158.67   0         0         47.8255   16.671    342.21    -0.0291432 270.281   30.5096   
0.501     -72.0714  -168.285  3157.55   0         0         47.811    16.6668   342.21    -0.0458571 270.204   30.4585   
0.511     -93.7204  -168.967  3155.69   0         0         47.7948   16.6594   342.21    -0.0643359 270.2     30.3951   
0.521     -117.925  -169.003  3152.48   0         0         47.7777   16.6603   342.21    -0.0858709 270.198   30.3976   
0.532     -143.586  -168.176  3151.06   0         0         47.7624   16.6597   342.21    -0.10533  270.219   30.4251   
0.542     -167.934  -168.787  3150.5    0         0         47.7488   16.6603   342.21    -0.123049 270.202   30.5077   
0.552     -191.941  -168.204  3149.37   0         0         47.735    16.6591   342.21    -0.141864 270.201   30.4955   
0.562     -216.65   -167.777  3148.08   0         0         47.7216   16.6505   342.21    -0.163793 270.202   30.5031   
0.572     -242.027  -168.684  3151.57   0         0         47.7067   16.6499   342.21    -0.185495 270.279   30.4976   
0.582     -268.79   -168.307  3153.27   0         0         47.6929   16.65     342.21    -0.208455 270.203   30.5029   
0.592     -295.065  -168.935  3154.02   0         0         47.6813   16.65     342.21    -0.229994 270.285   30.4913   
0.602     -319.992  -169.102  3155.79   0         0         47.6708   16.65     342.21    -0.247744 270.245   30.4049   
0.612     -343.07   -168.766  3157.67   0         0         47.6617   16.65     342.21    -0.267756 270.26    30.3993   
0.622     -365.728  -169.734  3156.83   0         0         47.6526   16.65     342.21    -0.283615 270.259   30.3999   
0.632     -389.514  -169.485  3156.37   0         0         47.6458   16.65     342.21    -0.300127 270.196   30.4004   
0.642     -409.893  -170.071  3156.12   0         0         47.6372   16.65     342.21    -0.317858 270.204   30.399    
0.652     -432.357  -170.28   3153.61   0         0         47.628    16.65     342.21    -0.33844  270.198   30.4014   
0.662     -456.289  -169.417  3151.84   0         0         47.6195   16.65     342.21    -0.358303 270.2     30.3978   
0.672     -479.285  -169.649  3150.38   0         0         47.6119   16.65     342.21    -0.376098 270.202   30.4036   
0.682     -501.527  -169.187  3148.91   0         0         47.6039   16.6499   342.21    -0.395969 270.195   30.393    
0.692     -524.308  -168.383  3146.53   0         0         47.5953   16.6501   342.21    -0.415689 270.256   30.4651   
0.702     -547.289  -169.235  3148.64   0         0         47.5861   16.6498   342.21    -0.436825 270.278   30.5088   
0.712     -571.668  -168.878  3150.29   0         0         47.5758   16.6502   342.21    -0.459726 270.294   30.4945   
0.722     -596.355  -169.122  3150.21   0         0         47.567    16.6496   342.21    -0.481049 270.283   30.5049   
0.732     -619.871  -169.322  3151.76   0         0         47.5591   16.6509   342.21    -0.501956 270.302   30.4944   
0.742     -641.88   -168.76   3153.57   0         0         47.5512   16.6525   342.21    -0.519554 270.252   30.5092   
0.752     -663.276  -169.57   3153.01   0         0         47.5434   16.657    342.21    -0.538629 270.298   30.4582   
0.762     -686.726  -169.851  3151.4    0         0         47.5345   16.66     342.21    -0.557634 270.22    30.3914   
0.772     -707.076  -170.281  3150.75   0         0         47.5272   16.6598   342.21    -0.575698 270.197   30.4048   
0.782     -728.774  -170.512  3147.19   0         0         47.5171   16.6602   342.21    -0.599473 270.198   30.3962   
0.792     -752.706  -169.626  3145.38   0         0         47.5076   16.6599   342.21    -0.621875 270.245   30.4037   
0.802     -776.208  -169.837  3144.18   0         0         47.4982   16.6601   342.21    -0.641734 270.207   30.3945   
0.812     -798.744  -169.263  3144.13   0         0         47.4896   16.66     342.21    -0.660627 270.198   30.4189   
0.822     -821.524  -168.091  3142.17   0         0         47.4803   16.66     342.21    -0.682477 270.202   30.5031   
0.832     -844.637  -168.683  3143.95   0         0         47.4699   16.66     342.21    -0.706065 270.274   30.4962   
0.842     -869.237  -168.606  3146.67   0         0         47.4591   16.66     342.21    -0.732225 270.213   30.5107   
0.852     -894.723  -168.258  3147.13   0         0         47.4482   16.66     342.21    -0.755068 270.281   30.5957   
0.862     -919.039  -168.852  3148.33   0         0         47.4387   16.66     342.21    -0.775189 270.29    30.6013   
0.872     -941.81   -168.133  3150.26   0         0         47.4295   16.66     342.21    -0.796208 270.288   30.5969   
0.882     -963.275  -168.502  3150.66   0         0         47.42     16.66     342.21    -0.816517 270.265   30.513    
0.893     -986.662  -168.798  3149.27   0         0         47.4112   16.66     342.21    -0.838457 270.257   30.4951   
0.903     -1008.13  -168.65   3149.94   0         0         47.4024   16.66     342.21    -0.857291 270.208   30.5046   
0.913     -1029.33  -168.817  3147.8    0         0         47.3918   16.66     342.21    -0.881233 270.196   30.421    
0.923     -1052.85  -167.727  3146.09   0         0         47.3817   16.66     342.21    -0.904161 270.206   30.3941   
0.933     -1075.71  -167.479  3144.34   0         0         47.3714   16.66     342.21    -0.926551 270.276   30.404    
0.943     -1098.38  -167.197  3143.46   0         0         47.3612   16.66     342.21    -0.948705 270.19    30.396    
0.953     -1120.81  -166.106  3140.85   0         0         47.3509   16.66     342.21    -0.971952 270.255   30.405    
0.963     -1143.29  -166.489  3140.61   0         0         47.3404   16.66     342.21    -0.996041 270.282   30.3911   
0.973     -1166.35  -166.765  3142.95   0         0         47.3279   16.66     342.21    -1.02239  270.29    30.4555   
0.983     -1191.18  -166.34   3142.95   0         0         47.317    16.66     342.21    -1.04783  270.301   30.5093   
0.993     -1215.05  -166.714  3143.52   0         0         47.307    16.66     342.21    -1.0704   270.303   30.4944   
1.003     -1237.45  -166.342  3145.16   0         0         47.2973   16.66     342.21    -1.09054  270.277   30.5048   
1.013     -1257.17  -166.471  3145.98   0         0         47.2883   16.66     342.21    -1.11175  270.308   30.4947   
1.023     -1278.5   -166.823  3144.11   0         0         47.278    16.66     342.21    -1.13254  270.256   30.5083   
1.033     -1299.22  -166.62   3143.78   0         0         47.2687   16.66     342.21    -1.15448  270.253   30.468    
1.043     -1318.58  -167.214  3141.23   0         0         47.2581   16.66     342.21    -1.17787  270.199   30.3932   
1.053     -1340.26  -166.24   3138.47   0         0         47.2472   16.66     342.21    -1.20306  270.248   30.4038   
1.063     -1361.53  -165.841  3137.09   0         0         47.2374   16.66     342.21    -1.22646  270.241   30.3971   
1.073     -1382.63  -165.816  3136.7    0         0         47.2259   16.66     342.21    -1.24881  270.249   30.4027   
1.083     -1403.2   -164.746  3135.68   0         0         47.2165   16.66     342.21    -1.27119  270.223   30.3963   
1.093     -1423.43  -164.543  3134.9    0         0         47.2066   16.66     342.21    -1.29354  270.281   30.4117   
1.103     -1443.97  -165.051  3138.01   0         0         47.1951   16.66     342.21    -1.31993  270.308   30.497    
1.113     -1466.27  -164.551  3139.21   0         0         47.1828   16.66     342.21    -1.34423  270.295   30.5007   
1.123     -1488.6   -164.619  3139.76   0         0         47.1729   16.6601   342.21    -1.36848  270.303   30.4993   
1.133     -1509.35  -164.188  3141.19   0         0         47.1635   16.6599   342.21    -1.38836  270.298   30.501    
1.143     -1527.15  -163.991  3142.86   0         0         47.1543   16.6601   342.21    -1.40781  270.302   30.4984   
1.153     -1545.9   -164.096  3141.79   0         0         47.1448   16.6608   342.21    -1.42901  270.296   30.5023   
1.163     -1565.78  -163.72   3141.64   0         0         47.1374   16.665    342.21    -1.44922  270.236   30.4202   
1.173     -1582.95  -164.371  3141.32   0         0         47.1275   16.6706   342.21    -1.47139  270.251   30.394    
1.183     -1602.23  -163.604  3139.05   0         0         47.1177   16.6697   342.21    -1.49474  270.211   30.4041   
1.193     -1621.06  -162.955  3137.61   0         0         47.1088   16.6702   342.21    -1.51691  270.305   30.396    
1.203     -1639.46  -162.985  3136.15   0         0         47.0986   16.6699   342.21    -1.53771  270.258   30.405    
1.213     -1657.94  -162.012  3135      0         0         47.0894   16.6701   342.21    -1.56138  270.285   30.3912   
1.223     -1675.94  -161.446  3132.49   0         0         47.0811   16.67     342.21    -1.58161  270.305   30.4574   
1.233     -1693.83  -161.836  3134.05   0         0         47.0704   16.67     342.21    -1.60741  270.297   30.5094   
1.244     -1713.14  -161.628  3135.27   0         0         47.0597   16.67     342.21    -1.63198  270.302   30.4941   
1.254     -1733.17  -161.626  3134.83   0         0         47.0492   16.67     342.21    -1.65556  270.299   30.5053   
1.264     -1752.12  -161.768  3135.65   0         0         47.0403   16.67     342.21    -1.67551  270.3     30.4939   
1.274     -1768.33  -161.257  3137.19   0         0         47.0328   16.67     342.21    -1.69324  270.301   30.5096   
1.284     -1783.2   -161.677  3136.65   0         0         47.0248   16.67     342.21    -1.71351  270.299   30.4643   
1.294     -1800.2   -161.53   3135.07   0         0         47.0154   16.67     342.21    -1.73516  270.302   30.3955   
1.304     -1814.63  -161.886  3134.81   0         0         47.0061   16.67     342.21    -1.75583  270.253   30.3985   
1.314     -1830.05  -161.792  3131.46   0         0         46.996    16.67     342.21    -1.77925  270.284   30.4192   
1.324     -1846.44  -160.584  3129.79   0         0         46.9847   16.67     342.21    -1.80133  270.304   30.507    
1.334     -1862.86  -160.235  3128.36   0         0         46.9755   16.67     342.21    -1.82293  270.298   30.4935   
1.344     -1879.27  -159.892  3128.27   0         0         46.9652   16.67     342.21    -1.84465  270.301   30.5147   
1.354     -1894.81  -158.983  3126.44   0         0         46.9558   16.67     342.21    -1.86452  270.299   30.597    
1.364     -1909.98  -159.183  3127.1    0         0         46.9467   16.67     342.21    -1.88599  270.3     30.601    
1.374     -1926.38  -159.554  3129.55   0         0         46.9346   16.67     342.21    -1.9112   270.3     30.599    
1.384     -1944.19  -159.072  3129.88   0         0         46.9242   16.67     342.21    -1.93428  270.3     30.6016   
1.394     -1961.34  -159.181  3130.56   0         0         46.914    16.67     342.21    -1.9544   270.3     30.5977   
1.404     -1976.4   -158.502  3132.14   0         0         46.9071   16.67     342.21    -1.97045  270.3     30.6032   
1.414     -1989     -158.517  3133.14   0         0         46.8992   16.67     342.21    -1.98739  270.301   30.5156   
1.424     -2003.39  -158.597  3131.74   0         0         46.8912   16.67     342.21    -2.00598  270.299   30.4991   
1.434     -2017.08  -158.407  3132.57   0         0         46.8821   16.67     342.21    -2.02366  270.303   30.4953   
1.444     -2030.01  -158.743  3131.35   0         0         46.8718   16.67     342.21    -2.04582  270.281   30.5717   
1.454     -2045.22  -157.579  3129.51   0         0         46.8629   16.67     342.21    -2.06587  270.296   30.605    
1.464     -2059.21  -157.355  3127.75   0         0         46.8543   16.67     342.21    -2.08447  270.302   30.6001   
1.474     -2073.54  -157.386  3126.81   0         0         46.844    16.67     342.21    -2.10502  270.299   30.5958   
1.484     -2086.99  -156.366  3125.06   0         0         46.8357   16.67     342.21    -2.12384  270.301   30.6093   
1.494     -2100.54  -156.007  3123.45   0         0         46.8265   16.67     342.21    -2.14326  270.3     30.5804   
1.504     -2114.27  -156.859  3125.4    0         0         46.8153   16.67     342.21    -2.16756  270.3     30.6992   
1.514     -2130.07  -156.212  3125.78   0         0         46.8059   16.67     342.21    -2.19129  270.3     30.8101   
1.524     -2145.7   -156.248  3125.63   0         0         46.7948   16.67     342.21    -2.21183  270.3     30.8064   
1.534     -2159.88  -155.945  3126.7    0         0         46.7875   16.67     342.21    -2.22785  270.3     30.7351   
1.544     -2171.47  -155.502  3127.93   0         0         46.7803   16.67     342.21    -2.24377  270.3     30.5804   
1.554     -2183.2   -155.663  3126.68   0         0         46.7726   16.67     342.21    -2.26207  270.32    30.6113   
1.564     -2196.08  -155.311  3125.52   0         0         46.7628   16.67     342.21    -2.28132  270.3     30.5917   
1.574     -2206.59  -155.456  3124.51   0         0         46.7538   16.67     342.21    -2.30233  270.3     30.6072   
1.584     -2219.62  -154.665  3121.1    0         0         46.7429   16.67     342.21    -2.32509  270.299   30.5906   
1.595     -2232.8   -153.928  3119.53   0         0         46.7323   16.6701   342.21    -2.34634  270.301   30.6291   
1.605     -2245.81  -153.969  3118.51   0         0         46.724    16.6699   342.21    -2.36734  270.298   30.7991   
1.615     -2258.26  -152.831  3118.43   0         0         46.7155   16.6704   342.21    -2.38603  270.303   30.7977   
1.625     -2269.96  -152.097  3116.56   0         0         46.7052   16.6723   342.21    -2.40533  270.295   30.8068   
1.635     -2281.49  -152.307  3118.23   0         0         46.6968   16.6756   342.21    -2.42592  270.339   30.8914   
1.645     -2294.62  -152.175  3120.06   0         0         46.686    16.6776   342.21    -2.44821  270.301   30.9032   
1.655     -2308.88  -151.89   3120.16   0         0         46.6761   16.677    342.21    -2.46886  270.339   30.8975   
1.665     -2322.17  -151.886  3120.96   0         0         46.6687   16.6767   342.21    -2.48521  270.32    30.9031   
1.675     -2333.68  -151.064  3122.41   0         0         46.6615   16.6778   342.21    -2.49962  270.301   30.8959   
1.685     -2343.52  -151.299  3122.96   0         0         46.6551   16.6789   342.21    -2.51413  270.301   30.907    
1.695     -2355.23  -151.133  3121.95   0         0         46.6462   16.68     342.21    -2.53103  270.299   30.8248   
1.705     -2365.26  -151.133  3122.95   0         0         46.6378   16.6794   342.21    -2.54976  270.301   30.7966   
1.715     -2375.68  -151.328  3121.58   0         0         46.6292   16.6794   342.21    -2.56943  270.299   30.7969   
1.725     -2388.34  -149.967  3119.82   0         0         46.6204   16.6802   342.21    -2.58905  270.301   30.8571   
1.735     -2399.88  -150.011  3118.14   0         0         46.6108   16.6799   342.21    -2.60682  270.299   30.9138   
1.745     -2411.27  -149.554  3117.5    0         0         46.6019   16.6801   342.21    -2.62492  270.301   30.8862   
1.755     -2421.69  -148.56   3115.57   0         0         46.5944   16.68     342.21    -2.6441   270.299   30.9526   
1.765     -2432.79  -148.727  3114.58   0         0         46.5845   16.68     342.21    -2.66466  270.305   31.0069   
1.775     -2444.68  -149.214  3116.43   0         0         46.5738   16.68     342.21    -2.6875   270.357   30.9968   
1.785     -2458.18  -148.696  3116.23   0         0         46.5628   16.68     342.21    -2.71068  270.318   31.0019   
1.795     -2471.08  -148.696  3116.56   0         0         46.5526   16.68     342.21    -2.72996  270.386   30.9987   
1.805     -2482.91  -147.886  3117.39   0         0         46.5456   16.68     342.21    -2.74565  270.31    31.0009   
1.815     -2492.49  -147.61   3118.56   0         0         46.5386   16.68     342.21    -2.7621   270.342   30.9995   
1.825     -2502.39  -147.872  3117.09   0         0         46.5295   16.68     342.21    -2.78089  270.312   31.0002   
1.835     -2512.69  -147.262  3116.27   0         0         46.5198   16.68     342.21    -2.80019  270.322   31        
1.845     -2520.93  -147.512  3115.1    0         0         46.511    16.68     342.21    -2.82233  270.306   30.9995   
1.855     -2532.42  -146.405  3112.17   0         0         46.4983   16.68     342.21    -2.84642  270.305   31.001    
1.865     -2543.96  -145.945  3110.61   0         0         46.4897   16.68     342.21    -2.86741  270.308   30.9978   
1.875     -2554.5   -146.145  3110.07   0         0         46.4797   16.68     342.21    -2.88633  270.312   31.0079   
1.885     -2564.43  -144.81   3109.85   0         0         46.4693   16.68     342.21    -2.90634  270.305   31.0921   
1.895     -2574.63  -144.418  3108.11   0         0         46.462    16.68     342.21    -2.92717  270.31    31.1038   
1.905     -2585.17  -144.586  3109.69   0         0         46.4514   16.68     342.21    -2.94695  270.361   31.0982   
1.915     -2596.63  -144.349  3110.89   0         0         46.4407   16.68     342.21    -2.97004  270.364   31.2728   
1.925     -2609.18  -144.152  3110.9    0         0         46.4289   16.68     342.21    -2.99368  270.338   31.3047   
1.935     -2624.49  -144.018  3111.31   0         0         46.4133   16.68     342.21    -3.02685  270.403   31.3011   
1.946     -2644.08  -143.238  3112.13   0         0         46.3943   16.68     342.21    -3.06568  270.306   31.2276   
1.956     -2666.07  -143.817  3112.16   0         0         46.372    16.68     342.21    -3.11448  270.379   31.1917   
1.966     -2692.8   -143.077  3110.5    0         0         46.3451   16.68     342.21    -3.16923  270.325   31.2053   
1.976     -2721.67  -142.539  3110.8    0         0         46.314    16.68     342.21    -3.2309   270.335   31.1955   
1.986     -2754.57  -142.365  3108.26   0         0         46.2794   16.68     342.21    -3.305    270.29    31.2049   
1.996     -2792.68  -140.554  3104.84   0         0         46.2412   16.68     342.21    -3.38305  270.333   31.1919   
2.006     -2831.71  -140.112  3101.95   0         0         46.2009   16.68     342.21    -3.47032  270.342   31.2496   
2.016     -2872.97  -138.925  3099.79   0         0         46.1556   16.68     342.21    -3.56317  270.335   31.3126   
2.026     -2917.14  -137.172  3096.48   0         0         46.1067   16.68     342.21    -3.66396  270.33    31.2874   
2.036     -2964.31  -136.004  3093.84   0         0         46.0558   16.68     342.21    -3.77425  270.388   31.342    
2.046     -3013.21  -135.516  3093.17   0         0         46.0007   16.68     342.21    -3.88704  270.404   31.4065   
2.056     -3064.85  -133.992  3091.47   0         0         45.9426   16.68     342.21    -4.00898  270.398   31.3969   
2.066     -3117.78  -132.613  3089.97   0         0         45.8849   16.68     342.21    -4.13079  270.401   31.402    
2.076     -3170.59  -131.079  3090.35   0         0         45.8297   16.68     342.21    -4.24629  270.399   31.3986   
2.086     -3218.76  -128.551  3092.48   0         0         45.7806   16.68     342.21    -4.35284  270.401   31.4012   
2.096     -3261.6   -126.902  3091.86   0         0         45.7356   16.68     342.203   -4.44951  270.41    31.399    
2.106     -3300.37  -125.098  3089.69   0         0         45.6955   16.68     342.196   -4.53727  270.398   31.401    
2.116     -3334.35  -124.384  3086.23   0         0         45.6553   16.68     342.186   -4.62148  270.402   31.3982   
2.126     -3370.01  -123.089  3084.27   0         0         45.6145   16.68     342.176   -4.71051  270.397   31.4076   
2.136     -3404.1   -119.511  3084.3    0         0         45.5775   16.68     342.165   -4.79409  270.465   31.496    
2.146     -3433.89  -118.842  3085.68   0         0         45.5381   16.68     342.153   -4.87711  270.445   31.4994   
2.156     -3463.81  -117.682  3087.24   0         0         45.4983   16.68     342.143   -4.96053  270.484   31.5018   
2.166     -3493.1   -116.094  3088.35   0         0         45.4627   16.68     342.131   -5.03978  270.486   31.4966   
2.176     -3519.21  -115.442  3090.6    0         0         45.4283   16.68     342.121   -5.11464  270.495   31.5053   
2.186     -3544.35  -115.532  3093.16   0         0         45.3934   16.68     342.11    -5.19069  270.503   31.4906   
2.196     -3569.71  -114.019  3094.88   0         0         45.3599   16.68     342.098   -5.26274  270.498   31.6548   
2.206     -3593.5   -112.667  3096.42   0         0         45.3276   16.68     342.088   -5.33051  270.501   31.7098   
2.216     -3616.84  -110.957  3098.26   0         0         45.2973   16.68     342.076   -5.39548  270.499   31.6963   
2.226     -3638.24  -110.181  3098.52   0         0         45.2676   16.68     342.066   -5.45973  270.503   31.6999   
2.236     -3658.1   -110.432  3097.54   0         0         45.2341   16.68     342.054   -5.53015  270.518   31.7036   
2.246     -3682.02  -109.102  3098.05   0         0         45.1949   16.68     342.05    -5.61269  270.499   31.6881   
2.256     -3706.18  -108.571  3100.09   0         0         45.1531   16.68     342.042   -5.70253  270.502   31.7996   
2.266     -3732.66  -105.766  3099.36   0         0         45.1102   16.68     342.039   -5.79134  270.496   31.9291   
2.276     -3754.33  -104.316  3097.45   0         0         45.0717   16.68     342.041   -5.87356  270.554   31.868    
2.286     -3773.24  -105.327  3095.83   0         0         45.0299   16.68     342.033   -5.96167  270.529   32.0256   
2.297     -3793.24  -102.323  3094.65   0         0         44.9885   16.68     342.029   -6.04748  270.584   32.2284   
2.307     -3812.02  -101.385  3092.8    0         0         44.9485   16.68     342.031   -6.13371  270.551   32.1763   
2.317     -3828.75  -100.659  3091.85   0         0         44.9096   16.6799   342.024   -6.21569  270.596   32.2644   
2.327     -3846.87  -99.5027  3092.98   0         0         44.87     16.6804   342.02    -6.29741  270.592   32.4104   
2.337     -3864.33  -97.0121  3094.35   0         0         44.8346   16.6812   342.018   -6.37262  270.599   32.3922   
2.347     -3879.8   -96.8989  3096.19   0         0         44.7983   16.6836   342.01    -6.4492   270.6     32.4199   
2.357     -3896.62  -95.1094  3097.64   0         0         44.7626   16.6845   342.004   -6.52381  270.601   32.503    
2.367     -3911.43  -94.2416  3095.95   0         0         44.728    16.6874   341.994   -6.5952   270.599   32.4946   
2.377     -3925.19  -94.9516  3093.92   0         0         44.6926   16.6826   341.984   -6.67026  270.603   32.5193   
2.387     -3940.62  -92.4671  3094.93   0         0         44.6553   16.6839   341.972   -6.74727  270.587   32.6928   
2.397     -3953.84  -90.5539  3096.12   0         0         44.6195   16.6879   341.963   -6.82464  270.59    32.6999   
2.407     -3970.4   -90.1098  3097.08   0         0         44.5822   16.6866   341.953   -6.9021   270.603   32.7076   
2.417     -3983.9   -90.1581  3098.7    0         0         44.5472   16.6878   341.943   -6.97324  270.598   32.9623   
2.427     -3997.29  -88.9163  3100.23   0         0         44.5115   16.6876   341.934   -7.04955  270.601   33.0136   
2.437     -4011.94  -88.1896  3101.85   0         0         44.4749   16.6878   341.924   -7.12846  270.599   32.9876   
2.447     -4026.02  -88.48    3102.08   0         0         44.4367   16.6903   341.915   -7.20378  270.6     33.2342   
2.457     -4040.38  -86.5097  3103.27   0         0         44.4027   16.6898   341.905   -7.27914  270.639   33.3218   
2.467     -4056.11  -86.3538  3104.76   0         0         44.3666   16.6902   341.896   -7.35405  270.619   33.2786   
2.477     -4071.21  -86.2335  3104.94   0         0         44.332    16.6893   341.888   -7.42359  270.637   33.44     
2.487     -4085.28  -86.257   3105      0         0         44.2986   16.6893   341.881   -7.49479  270.657   33.5114   
2.497     -4100.51  -85.0241  3105.31   0         0         44.2623   16.689    341.872   -7.56873  270.635   33.4931   
2.507     -4113.98  -86.119   3107.69   0         0         44.226    16.6873   341.87    -7.6466   270.635   33.5474   
2.517     -4126.85  -84.3109  3110.07   0         0         44.1869   16.6902   341.868   -7.72633  270.706   33.6256   
2.527     -4141.8   -82.4194  3109.52   0         0         44.1476   16.6899   341.859   -7.80975  270.612   33.5576   
2.537     -4154.5   -84.0194  3108.28   0         0         44.1098   16.6901   341.861   -7.88892  270.635   33.813    
2.547     -4165.58  -83.8279  3106.4    0         0         44.07     16.69     341.858   -7.97212  270.62    34.1512   
2.557     -4175.66  -81.6775  3105.52   0         0         44.0295   16.69     341.85    -8.05849  270.702   34.0597   
2.567     -4184.18  -82.439   3104.36   0         0         43.9844   16.69     341.85    -8.15165  270.689   34.2031   
2.577     -4193.7   -81.7506  3104.02   0         0         43.9408   16.69     341.848   -8.24524  270.699   34.4191   
2.587     -4201.58  -80.4161  3103.17   0         0         43.8969   16.69     341.839   -8.33848  270.7     34.381    
2.597     -4209.48  -79.9146  3103.59   0         0         43.8538   16.69     341.841   -8.42757  270.7     34.4617   
2.607     -4216.15  -80.6026  3103.6    0         0         43.8126   16.69     341.832   -8.51264  270.7     34.7123   
2.617     -4223.93  -79.4633  3103.62   0         0         43.7727   16.69     341.831   -8.59849  270.7     34.6852   
2.627     -4228.99  -78.7689  3103.79   0         0         43.7326   16.69     341.826   -8.68015  270.7     34.7458   
2.637     -4234.75  -78.4319  3103.75   0         0         43.6923   16.69     341.82    -8.7661   270.7     35.0897   
2.647     -4239.15  -77.3685  3103.8    0         0         43.6524   16.69     341.816   -8.85107  270.7     35.0985   
2.658     -4243.65  -76.4927  3103.66   0         0         43.6091   16.69     341.809   -8.93703  270.7     35.1089   
2.668     -4250.18  -76.0354  3103.91   0         0         43.569    16.69     341.805   -9.02306  270.7     35.2752   
2.678     -4255.6   -75.4503  3104.85   0         0         43.5305   16.69     341.798   -9.10083  270.7     35.3119   
2.688     -4260.64  -75.0898  3105.44   0         0         43.495    16.69     341.792   -9.17649  270.7     35.2873   
2.698     -4266.85  -74.2017  3106.65   0         0         43.459    16.69     341.786   -9.25045  270.7     35.6976   
2.708     -4271.16  -74.5544  3107.65   0         0         43.4227   16.69     341.78    -9.3249   270.7     35.8339   
2.718     -4277.33  -73.8805  3108.58   0         0         43.3863   16.6901   341.774   -9.40304  270.7     35.7676   
2.728     -4282.56  -73.7202  3109.36   0         0         43.3469   16.6899   341.767   -9.4814   270.7     36.0759   
2.738     -4289.1   -73.2725  3110.06   0         0         43.3083   16.6902   341.762   -9.563    270.7     36.2396   
2.748     -4294.78  -73.3126  3110.44   0         0         43.2712   16.6897   341.756   -9.64076  270.699   36.1567   
2.758     -4302.11  -73.1535  3111.63   0         0         43.2327   16.6905   341.751   -9.71746  270.701   36.4343   
2.768     -4307.17  -72.83    3112.74   0         0         43.1973   16.6891   341.745   -9.7939   270.698   36.6352   
2.778     -4312.89  -72.6419  3113.85   0         0         43.1578   16.6869   341.74    -9.875    270.718   36.5729   
2.788     -4317.78  -72.5539  3113.96   0         0         43.1178   16.6872   341.735   -9.95699  270.706   36.6925   
2.798     -4323.17  -72.7521  3114.06   0         0         43.0774   16.6899   341.729   -10.0432  270.707   36.8234   
2.808     -4326.5   -72.2133  3114.36   0         0         43.0366   16.6879   341.729   -10.1281  270.699   36.7701   
2.818     -4329.16  -72.1479  3114.23   0         0         42.9929   16.6845   341.719   -10.2171  270.7     36.9276   
2.828     -4332.31  -71.8132  3114.37   0         0         42.9499   16.6798   341.721   -10.3096  270.7     37.2422   
2.838     -4334.59  -71.551   3114.58   0         0         42.9066   16.6843   341.719   -10.3999  270.7     37.1558   
2.848     -4336.59  -71.4353  3114.32   0         0         42.8629   16.6851   341.71    -10.4888  270.699   37.3369   
2.858     -4338.4   -71.3977  3114.51   0         0         42.8215   16.6857   341.71    -10.578   270.701   37.8257   
2.868     -4339.53  -71.2488  3114.76   0         0         42.7801   16.6842   341.708   -10.6612  270.698   37.7743   
2.878     -4338.72  -71.0493  3114.82   0         0         42.7397   16.6793   341.699   -10.7476  270.703   37.8672   
2.888     -4338.74  -71.1759  3115.18   0         0         42.6971   16.6822   341.701   -10.8375  270.695   38.2915   
2.898     -4336.62  -70.5435  3114.82   0         0         42.653    16.6801   341.697   -10.9274  270.721   38.2958   
2.908     -4334.91  -70.8538  3114.38   0         0         42.6088   16.68     341.689   -11.0214  270.717   38.315    
2.918     -4333.47  -70.5785  3114.29   0         0         42.5651   16.68     341.691   -11.1096  270.729   38.4722   
2.928     -4331.36  -70.7694  3113.96   0         0         42.5227   16.68     341.688   -11.1979  270.721   38.52     
2.938     -4330.28  -69.9925  3114.2    0         0         42.4812   16.68     341.68    -11.2837  270.721   38.4779   
2.948     -4329.59  -69.906   3114.44   0         0         42.4429   16.68     341.68    -11.364   270.706   39.244    
2.958     -4327.94  -70.2438  3115.24   0         0         42.4056   16.68     341.68    -11.442   270.736   39.4348   
2.968     -4326.08  -69.4557  3115.75   0         0         42.3669   16.68     341.68    -11.5197  270.699   39.3877   
2.978     -4325.62  -69.5422  3116.54   0         0         42.3296   16.68     341.672   -11.6003  270.7     39.3997   
2.988     -4323.41  -70.1557  3117.08   0         0         42.2911   16.68     341.669   -11.6795  270.701   39.4131   
2.998     -4325.34  -69.3658  3117.57   0         0         42.2522   16.68     341.67    -11.7579  270.708   39.3615   
3.009     -4324.23  -69.0814  3117.35   0         0         42.2168   16.68     341.67    -11.8312  270.703   39.7452   
3.019     -4324.65  -69.4562  3117.37   0         0         42.1791   16.68     341.67    -11.9077  270.706   40.0682   
3.029     -4321.61  -69.1181  3118.38   0         0         42.1413   16.68     341.67    -11.9852  270.708   39.9393   
3.039     -4321     -68.3762  3118.83   0         0         42.1005   16.68     341.671   -12.0715  270.711   40.2386   
3.049     -4317.21  -68.4476  3118.73   0         0         42.0595   16.68     341.664   -12.1567  270.716   40.5581   
3.059     -4317.44  -68.7872  3117.87   0         0         42.0144   16.68     341.659   -12.2475  270.717   40.4362   
3.069     -4316.02  -67.925   3117.37   0         0         41.9757   16.68     341.66    -12.3291  270.706   40.7237   
3.079     -4312.45  -68.6425  3116.58   0         0         41.9352   16.68     341.66    -12.4132  270.726   41.1367   
3.089     -4308.87  -68.3162  3114.87   0         0         41.8941   16.68     341.66    -12.4975  270.694   41.0853   
3.099     -4306.57  -67.626   3114.7    0         0         41.8511   16.68     341.66    -12.5868  270.703   41.1045   
3.109     -4301.27  -68.0207  3114.9    0         0         41.8075   16.68     341.66    -12.6788  270.698   41.1045   
3.119     -4297.08  -67.8559  3113.75   0         0         41.7639   16.68     341.66    -12.7701  270.701   41.0811   
3.129     -4295.07  -67.2101  3114.68   0         0         41.7227   16.68     341.66    -12.858   270.699   41.1926   
3.139     -4287.83  -67.7507  3114.68   0         0         41.6806   16.68     341.66    -12.9434  270.7     41.8017   
3.149     -4285.75  -67.0362  3114.84   0         0         41.6376   16.68     341.66    -13.0322  270.7     41.7889   
3.159     -4278.73  -67.3963  3114.35   0         0         41.5984   16.68     341.66    -13.109   270.7     41.8272   
3.169     -4274.6   -66.7832  3113.79   0         0         41.5568   16.68     341.66    -13.1963  270.7     42.167    
3.179     -4264.31  -67.4333  3113.75   0         0         41.5158   16.68     341.66    -13.2848  270.699   42.2087   
3.189     -4260.81  -67.2812  3113.47   0         0         41.4681   16.68     341.66    -13.3811  270.701   42.1992   
3.199     -4251.21  -66.3207  3112.37   0         0         41.4255   16.68     341.66    -13.4693  270.709   42.5252   
3.209     -4247.88  -67.4168  3112.82   0         0         41.3834   16.68     341.66    -13.5571  270.699   42.6349   
3.219     -4242.48  -66.5703  3112.47   0         0         41.3481   16.68     341.66    -13.6297  270.7     42.5564   
3.229     -4236.77  -67.6091  3112.52   0         0         41.3114   16.68     341.66    -13.7069  270.7     43.0488   
3.239     -4231.72  -67.2729  3111.98   0         0         41.2738   16.68     341.66    -13.7824  270.7     43.2291   
3.249     -4228.99  -67.1704  3111.98   0         0         41.2394   16.68     341.66    -13.8562  270.701   43.1923   
3.259     -4224.29  -67.7325  3112.84   0         0         41.2022   16.68     341.66    -13.9315  270.698   43.1947   
3.269     -4219.63  -66.8058  3112.11   0         0         41.1645   16.68     341.658   -14.0088  270.682   43.2196   
3.279     -4218.6   -66.6056  3112.8    0         0         41.1263   16.68     341.65    -14.0878  270.697   43.1497   
3.289     -4211.77  -67.6293  3114.67   0         0         41.0893   16.68     341.65    -14.1646  270.662   43.5329   
3.299     -4212.92  -66.3066  3115.67   0         0         41.0495   16.68     341.65    -14.2474  270.703   43.9809   
3.309     -4208.1   -66.7238  3116.61   0         0         41.0152   16.68     341.65    -14.3194  270.699   43.832    
3.319     -4208.28  -66.6102  3116.58   0         0         40.9769   16.68     341.65    -14.3957  270.7     44.0991   
3.329     -4199.77  -66.8808  3117.18   0         0         40.9422   16.68     341.65    -14.4702  270.7     44.4385   
3.339     -4197.79  -66.7381  3117.51   0         0         40.8976   16.68     341.65    -14.5617  270.699   44.3645   
3.349     -4187.39  -65.1719  3115.71   0         0         40.8546   16.68     341.649   -14.6505  270.702   44.5071   
3.36      -4183.22  -66.3221  3114.57   0         0         40.8051   16.68     341.64    -14.7561  270.695   44.8224   
3.37      -4177.83  -64.9164  3114.29   0         0         40.7606   16.68     341.64    -14.846   270.695   44.7785   
3.38      -4170.69  -65.8824  3113.92   0         0         40.7181   16.68     341.64    -14.9341  270.694   44.863    
3.39      -4162.67  -65.7193  3113.17   0         0         40.6773   16.68     341.64    -15.0202  270.685   45.2057   
3.4       -4159.93  -64.9853  3113.04   0         0         40.6329   16.68     341.64    -15.1108  270.691   45.1831   
3.41      -4152.23  -65.6003  3113.99   0         0         40.5947   16.68     341.64    -15.192   270.666   45.274    
3.42      -4144.62  -65.4109  3113.98   0         0         40.5523   16.68     341.641   -15.278   270.658   46.2352   
3.43      -4138.8   -64.1306  3113.61   0         0         40.5117   16.68     341.635   -15.3619  270.614   46.3099   
3.44      -4129.31  -65.03    3115.56   0         0         40.4697   16.68     341.629   -15.4498  270.605   46.3006   
3.45      -4123.26  -64.6441  3116.66   0         0         40.4253   16.68     341.631   -15.5441  270.628   46.294    
3.46      -4117.77  -64.8153  3118.12   0         0         40.3852   16.68     341.629   -15.6239  270.653   46.3136   
3.47      -4113.55  -64.9038  3118.85   0         0         40.344    16.68     341.631   -15.7065  270.618   46.2737   
3.48      -4108.17  -64.4063  3120.53   0         0         40.3117   16.68     341.622   -15.7754  270.634   46.7466   
3.49      -4101.21  -65.4942  3122.05   0         0         40.2729   16.68     341.619   -15.8529  270.622   46.9432   
3.5       -4094.79  -63.8339  3122.34   0         0         40.2366   16.6801   341.62    -15.931   270.683   46.8685   
3.51      -4084.55  -64.5141  3121.42   0         0         40.1922   16.6799   341.62    -16.0222  270.637   47.0341   
3.52      -4081.99  -64.7476  3121.44   0         0         40.1507   16.6802   341.62    -16.1105  270.664   47.1167   
3.53      -4078.09  -64.3604  3121.53   0         0         40.1119   16.6798   341.611   -16.1892  270.636   47.0772   
3.54      -4070.61  -65.8535  3120.78   0         0         40.0773   16.6804   341.61    -16.2599  270.641   47.2449   
3.55      -4069.22  -64.7604  3119.74   0         0         40.0389   16.6791   341.61    -16.3405  270.613   47.4436   
3.56      -4066.46  -64.5523  3120.73   0         0         40.0056   16.6751   341.61    -16.4088  270.671   47.3476   
3.57      -4061.54  -64.7121  3122.87   0         0         39.9681   16.6733   341.61    -16.4864  270.587   47.6283   
3.58      -4056.16  -63.622   3122.78   0         0         39.9295   16.6692   341.611   -16.5659  270.607   48.0689   
3.59      -4053.71  -64.2933  3123.94   0         0         39.8864   16.6704   341.607   -16.6548  270.595   47.9288   
3.6       -4046.4   -64.4676  3126.02   0         0         39.8457   16.6697   341.599   -16.7385  270.603   48.2284   
3.61      -4045.83  -63.8274  3126.87   0         0         39.804    16.6702   341.6     -16.8269  270.598   48.8486   
3.62      -4039.36  -64.0412  3126.99   0         0         39.7655   16.6699   341.6     -16.9069  270.601   48.7598   
3.63      -4038.28  -63.5255  3126.68   0         0         39.7248   16.6701   341.6     -16.99    270.599   48.8959   
3.64      -4028.3   -63.3288  3127.82   0         0         39.6854   16.67     341.6     -17.0734  270.601   49.3032   
3.65      -4024.09  -63.2858  3128.3    0         0         39.6398   16.67     341.6     -17.1676  270.599   49.2919   
3.66      -4013.21  -61.5834  3127.21   0         0         39.5967   16.67     341.6     -17.2554  270.609   49.3269   
3.67      -4003.92  -62.6669  3125.76   0         0         39.5451   16.67     341.591   -17.3597  270.601   49.5829   
3.68      -3998.09  -61.7764  3125.25   0         0         39.4997   16.67     341.59    -17.46    270.599   49.6055   
3.69      -3989.79  -62.3987  3124.92   0         0         39.4561   16.67     341.59    -17.5479  270.6     49.6035   
3.7       -3976.65  -62.7197  3123.26   0         0         39.4151   16.67     341.59    -17.6382  270.6     50.0343   
3.711     -3971.43  -61.9002  3121.57   0         0         39.3683   16.67     341.59    -17.7355  270.6     50.1179   
3.721     -3964.35  -62.3845  3122.34   0         0         39.3278   16.67     341.59    -17.8176  270.6     50.0873   
3.731     -3957.5   -62.1663  3123.72   0         0         39.2873   16.67     341.59    -17.8999  270.6     50.3229   
3.741     -3950.05  -61.0855  3123.85   0         0         39.2498   16.67     341.59    -17.9788  270.6     50.4347   
3.751     -3944.5   -61.9209  3126.09   0         0         39.2108   16.67     341.59    -18.0578  270.6     50.3506   
3.761     -3938.12  -61.9329  3128.86   0         0         39.1749   16.67     341.59    -18.1342  270.6     50.8484   
3.771     -3935.25  -61.6954  3130.54   0         0         39.1386   16.67     341.59    -18.2085  270.6     51.1762   
3.781     -3930.25  -62.1734  3131.25   0         0         39.1047   16.67     341.59    -18.2777  270.6     51.0242   
3.791     -3929.26  -61.787   3131.51   0         0         39.0705   16.67     341.59    -18.3487  270.6     51.4338   
3.801     -3922.57  -62.2119  3132.92   0         0         39.0352   16.67     341.591   -18.4187  270.6     51.7482   
3.811     -3920.05  -62.0382  3133.53   0         0         38.9969   16.67     341.588   -18.5007  270.6     51.6676   
3.821     -3910.77  -60.7311  3132.52   0         0         38.9574   16.67     341.58    -18.5805  270.6     51.7878   
3.831     -3902.99  -61.3073  3131.48   0         0         38.9114   16.67     341.58    -18.6796  270.6     51.9206   
3.841     -3900.34  -60.7204  3131.53   0         0         38.8655   16.67     341.58    -18.7735  270.6     51.873    
3.851     -3894.59  -61.689   3131.13   0         0         38.825    16.67     341.58    -18.8587  270.601   52.0135   
3.861     -3885.75  -62.0034  3129.41   0         0         38.7854   16.67     341.58    -18.9421  270.598   52.3348   
3.871     -3883.58  -61.3895  3127.42   0         0         38.7423   16.67     341.58    -19.0306  270.591   52.266    
3.881     -3880.03  -61.4795  3127.47   0         0         38.705    16.67     341.58    -19.1097  270.602   52.3973   
3.891     -3875.83  -60.7792  3127.97   0         0         38.667    16.67     341.58    -19.1884  270.586   52.8137   
3.901     -3868.86  -59.9891  3127.34   0         0         38.6277   16.67     341.58    -19.2695  270.539   52.7804   
3.911     -3862.5   -60.4172  3128.68   0         0         38.5838   16.67     341.58    -19.3602  270.505   52.8606   
3.921     -3858.01  -60.3144  3131.4    0         0         38.5376   16.67     341.58    -19.4591  270.527   53.3756   
3.931     -3853.67  -59.9923  3132.66   0         0         38.4706   16.67     341.58    -19.5972  270.546   53.4033   
3.941     -3844.31  -59.9772  3132.81   0         0         38.3567   16.6699   341.58    -19.8332  270.589   53.4109   
3.951     -3831.47  -59.1292  3132.41   0         0         38.1737   16.6701   341.58    -20.2183  270.518   53.8385   
3.961     -3810.05  -58.4337  3133      0         0         37.9104   16.6697   341.58    -20.7721  270.565   53.9212   
3.971     -3786.28  -57.303   3133.34   0         0         37.576    16.6712   341.58    -21.4815  270.537   53.8818   
3.981     -3755.75  -55.8029  3132.02   0         0         37.1878   16.6801   341.58    -22.3027  270.575   54.2141   
3.991     -3722.68  -54.8089  3129.52   0         0         36.7572   16.6797   341.58    -23.2105  270.551   54.327    
4.001     -3693.51  -53.2673  3127.93   0         0         36.3106   16.6805   341.58    -24.1551  270.569   54.2737   
4.011     -3665.96  -52.5638  3126.97   0         0         35.8567   16.6791   341.58    -25.1086  270.54    54.5014   
4.021     -3633.68  -51.9926  3125.2    0         0         35.3968   16.6861   341.58    -26.0753  270.572   54.6299   
4.031     -3604.12  -51.1407  3123.11   0         0         34.9225   16.6908   341.58    -27.0719  270.531   54.565    
4.041     -3574.42  -50.002   3121.35   0         0         34.4275   16.6896   341.58    -28.1114  270.598   54.8144   
4.051     -3550.33  -48.5654  3120.22   0         0         33.9081   16.6902   341.58    -29.1982  270.566   55.053    
4.061     -3522.72  -46.823   3119.39   0         0         33.3673   16.6899   341.58    -30.3306  270.587   54.9376   
4.072     -3493.9   -45.5386  3120.23   0         0         32.8044   16.6901   341.58    -31.5067  270.566   55.2924   
4.082     -3467     -44.2099  3122.61   0         0         32.249    16.69     341.58    -32.6693  270.594   55.7876   
4.092     -3444.79  -42.8166  3125.06   0         0         31.723    16.6899   341.58    -33.7635  270.534   55.6082   
4.102     -3426.3   -42.5494  3128.16   0         0         31.2485   16.6902   341.58    -34.7534  270.606   55.9995   
4.112     -3414.08  -42.2409  3131.17   0         0         30.8259   16.6891   341.58    -35.6349  270.596   56.6515   
4.122     -3402.84  -41.7257  3132.72   0         0         30.4379   16.6804   341.58    -36.4346  270.602   56.5755   
4.132     -3393.84  -41.0159  3133.81   0         0         30.072    16.68     341.58    -37.1951  270.599   56.6152   
4.142     -3383.18  -40.4749  3134.17   0         0         29.7027   16.68     341.58    -37.9549  270.601   56.5917   
4.152     -3368.21  -40.2922  3132.79   0         0         29.3196   16.68     341.58    -38.7523  270.6     56.6045   
4.162     -3350.9   -39.0387  3130.15   0         0         28.9164   16.68     341.581   -39.5923  270.6     56.6065   
4.172     -3332.67  -38.6777  3127.8    0         0         28.4884   16.68     341.575   -40.4773  270.6     56.6995   
4.182     -3315.67  -38.2923  3125.16   0         0         28.0528   16.68     341.569   -41.3867  270.599   56.6993   
4.192     -3297.82  -37.6679  3122.5    0         0         27.6178   16.68     341.57    -42.2959  270.601   56.7035   
4.202     -3276.63  -37.9948  3118.4    0         0         27.184    16.68     341.57    -43.2012  270.597   56.8827   
4.212     -3258.47  -37.6936  3112.87   0         0         26.75     16.68     341.57    -44.1081  270.606   56.8981   
4.222     -3242.86  -37.1228  3108.15   0         0         26.3206   16.68     341.57    -45.0071  270.636   56.9052   
4.232     -3229.06  -37.3939  3104.57   0         0         25.8954   16.68     341.57    -45.8969  270.6     57.0383   
4.242     -3216.83  -36.9518  3102.52   0         0         25.4686   16.6801   341.57    -46.7876  270.597   57.1456   
4.252     -3205.09  -36.5131  3101.33   0         0         25.0403   16.6799   341.57    -47.6823  270.608   57.0171   
4.262     -3191.88  -36.4069  3100.67   0         0         24.6115   16.6802   341.57    -48.5767  270.622   58.1094   
4.272     -3182.3   -35.9451  3102.08   0         0         24.1736   16.6797   341.569   -49.4918  270.61    58.7617   
4.282     -3172.26  -35.8795  3103.23   0         0         23.7287   16.6806   341.56    -50.4206  270.643   58.4278   
4.292     -3164.6   -35.3694  3104.85   0         0         23.2845   16.6782   341.561   -51.3517  270.595   59.5271   
4.302     -3158.6   -34.8842  3108.38   0         0         22.8406   16.6763   341.552   -52.2774  270.601   60.3602   
4.312     -3155.13  -34.755   3112.36   0         0         22.3929   16.6713   341.55    -53.209   270.601   60.0528   
4.322     -3151.56  -33.8176  3116.25   0         0         21.9452   16.6695   341.543   -54.1441  270.596   60.7594   
4.332     -3148.37  -33.7691  3120.64   0         0         21.4968   16.6703   341.54    -55.0793  270.613   61.5145   
4.342     -3146.24  -33.5318  3124.78   0         0         21.0466   16.6698   341.534   -56.0226  270.658   61.2993   
4.352     -3143.57  -32.5368  3129.44   0         0         20.5894   16.6701   341.53    -56.9729  270.658   61.7165   
4.362     -3138.89  -32.531   3133.61   0         0         20.1251   16.67     341.525   -57.9449  270.708   62.3636   
4.372     -3132.32  -32.2185  3136.16   0         0         19.6524   16.67     341.52    -58.9357  270.696   62.2522   
4.382     -3124.55  -32.0953  3138.25   0         0         19.1764   16.6701   341.515   -59.928   270.703   62.4204   
4.392     -3116.52  -31.4505  3138.97   0         0         18.7      16.6698   341.51    -60.925   270.698   62.8207   
4.402     -3109.47  -31.1679  3139.55   0         0         18.2162   16.6705   341.505   -61.9352  270.701   62.7759   
4.412     -3102.12  -31.467   3139.24   0         0         17.7324   16.6739   341.499   -62.9485  270.699   62.8782   
4.423     -3095.93  -30.7314  3141.64   0         0         17.2664   16.6768   341.501   -63.9213  270.7     63.3901   
4.433     -3087.6   -31.2035  3141.94   0         0         16.781    16.6789   341.5     -64.9343  270.7     63.3977   
4.443     -3077     -31.1319  3138.69   0         0         16.3102   16.6754   341.5     -65.9214  270.7     63.4244   
4.453     -3060.83  -31.8274  3133.58   0         0         15.7863   16.6749   341.491   -67.0176  270.7     63.9514   
4.463     -3049.71  -31.7224  3133.45   0         0         15.314    16.6785   341.49    -68.0001  270.7     64.0059   
4.473     -3035.18  -34.2163  3131.83   0         0         14.7533   16.6812   341.49    -69.1763  270.7     64.0149   

**END