**HEADER
RELEASE   Release of TYDEX-Format                 1.3
MEASID    Measurement ID                          long_2p7_06fz3_00cam0_60v1_00al0_01
SUPPLIER  Data Supplier                           ika-fka / Flattrac / friederichs
DATE      Date                                    03/02/20
CLCKTIME  Clocktime                               11:09

**COMMENTS
------------------------------------
Pure longitudinal slip data for
Bridgestone Potenza S001 MO 245/50R18 100W DOT4918
------------------------------------

**CONSTANTS
LOCATION  Location                      -         ika-fka, Aachen
MANUFACT  Tyre brand name               -         Bridgestone
IDENTITY  Commercial name               -         Potenza S001 MO
TYREMASS  Tyre mass                     kg        11.95
OVALLDIA  Measured outside diameter     m         0.70798
NOMDIAME  Nominal diameter of tyre      m         0.7022
NOMWIDTH  Nominal section width of tyre m         0.245
ASPRATIO  Nominal aspect ratio          -         0.5
SPEEDSYM  Speed symbol                  -         W
LOADIND   Load index                    -         100
TYROTIN   Tyre rot. inertia about YC    kgm2      1.233
RIMDIAME  Nominal rim diameter          m         0.4572
RIMWIDTH  Rim width                     m         0.2032
RIMROTIN  Rim rotational inertia        kgm2      0.386
TESTRIG   Test rig                      -         FlatTrac CT+
TRGROTIN  Test rig rot. inertia         kgm2      -
CURVTRSF  Curvature of track surface    1/m       0
TRCKSURF  Surface of Track              -         Korund P120
TRCKCOND  Condition of Track Surface    -         dry
SLIPANGL  Slip angle                    deg       0
INCLANGL  Inclination angle             deg       0

**MEASURCHANNELS
RUNTIME   Running time                  s         1         0         0
FX        Longitudinal Force            N         1         0         0
FYW       Lateral Force                 N         1         0         0
FZW       Vertical Force                N         1         0         0
INCLANGL  Inclination angle             deg       1         0         0
SLIPANGL  Slip angle                    deg       1         0         0
WHROTSPD  WHEEL rotation speed          rad/s     1         0         0
TRAJVELW  Trajectory velocity           m/s       1         0         0
DSTGRWHC  Dist. ground - WHEEL centre   mm        1         0         0
LONGSLIP  Longitudinal slip             %         1         0         0
INFLPRES  Inflation pressure            kPa       1         0         0
TRDTEMP   Tread surface temperature     deg C     1         0         0

**MEASURDATA
0         2755.53   -299.557  6413.19   0         0         48.6416   16.694    330.63    0.924084  269.888   30        
0.01      2662.7    -300.659  6393.09   0         0         48.5396   16.6824   330.63    0.769194  269.896   29.9999   
0.02      2536.56   -306.52   6374.22   0         0         48.4811   16.6689   330.63    0.721197  269.91    30.0001   
0.03      2493.72   -306.917  6352.15   0         0         48.4725   16.6616   330.63    0.757357  269.927   29.9997   
0.04      2429.57   -303.932  6335.84   0         0         48.4357   16.6557   330.63    0.716545  269.953   30.0004   
0.05      2360.15   -300.931  6333.6    0         0         48.4236   16.6484   330.63    0.702379  269.988   29.9993   
0.06      2295.09   -299.042  6339.16   0         0         48.4182   16.6552   330.63    0.676431  270.004   30.001    
0.07      2235.59   -298.293  6345.36   0         0         48.4216   16.6606   330.63    0.659962  270.013   29.9984   
0.08      2175.53   -299.359  6344.66   0         0         48.4141   16.6597   330.63    0.644739  269.992   30.0025   
0.09      2118.13   -300.758  6340.44   0         0         48.4093   16.6601   330.63    0.630229  269.982   29.9949   
0.1       2065.67   -301.593  6335.24   0         0         48.4103   16.66     330.63    0.622869  269.984   30.0202   
0.11      2014.97   -301.517  6332      0         0         48.4097   16.6601   330.63    0.608135  270.006   30.1032   
0.12      1961.04   -301.575  6328.95   0         0         48.4101   16.6689   330.63    0.587374  269.998   30.0977   
0.13      1905.45   -301.15   6326.03   0         0         48.4099   16.67     330.63    0.570785  270       30.1017   
0.14      1851.01   -300.74   6325.7    0         0         48.4101   16.6711   330.63    0.555051  270.006   30.0985   
0.15      1796.63   -301.836  6329.49   0         0         48.41     16.6798   330.63    0.532747  270.005   30.1015   
0.16      1741      -301.809  6331.93   0         0         48.41     16.6802   330.63    0.515128  270.003   30.1006   
0.17      1687.27   -302.542  6333.1    0         0         48.41     16.6796   330.63    0.499751  270.02    30.1912   
0.18      1636.48   -303.819  6335.86   0         0         48.4101   16.6874   330.63    0.483259  269.994   30.1993   
0.19      1586.33   -304.49   6336.77   0         0         48.4095   16.6907   330.63    0.463202  270.021   30.2043   
0.2       1533.18   -306.074  6334.49   0         0         48.4006   16.6897   330.63    0.446356  270.002   30.1192   
0.21      1481.55   -308.179  6332.5    0         0         48.4002   16.6902   330.63    0.438098  269.997   30.099    
0.22      1434.25   -309.977  6329.51   0         0         48.3987   16.6899   330.63    0.421959  269.968   30.0942   
0.23      1382.84   -311.207  6325.71   0         0         48.3867   16.6901   330.63    0.398272  269.993   30.1678   
0.24      1325.48   -311.307  6322.94   0         0         48.377    16.69     330.63    0.374946  270.005   30.2043   
0.25      1269.1    -311.803  6320.01   0         0         48.3704   16.69     330.63    0.360692  269.969   30.2042   
0.26      1216.61   -311.208  6316.46   0         0         48.3678   16.69     330.63    0.351416  269.977   30.1484   
0.27      1165.72   -310.968  6315.87   0         0         48.358    16.69     330.63    0.332019  270.003   30.0896   
0.28      1109.69   -311.638  6318.72   0         0         48.346    16.69     330.63    0.301961  269.992   30.1055   
0.29      1049.35   -311.723  6320.41   0         0         48.334    16.69     330.63    0.2764    269.966   30.0966   
0.3       991.252   -312.555  6321.15   0         0         48.3292   16.69     330.63    0.261666  269.979   30.1021   
0.31      938.639   -313.775  6323.29   0         0         48.3214   16.6899   330.63    0.245772  269.962   30.0986   
0.32      887.684   -314.329  6324.11   0         0         48.3149   16.6901   330.63    0.228597  269.962   30.1009   
0.33      832.929   -316.026  6321.57   0         0         48.3049   16.6898   330.63    0.211499  269.962   30.0993   
0.34      778.413   -317.618  6318.79   0         0         48.3003   16.6909   330.63    0.198686  269.912   30.1005   
0.35      728.309   -319.252  6314.96   0         0         48.295    16.6996   330.63    0.183178  269.906   30.0993   
0.36      675.675   -320.045  6310.17   0         0         48.2832   16.7001   330.63    0.160135  269.919   30.1009   
0.37      618.329   -320.444  6307.1    0         0         48.2749   16.6999   330.63    0.140035  269.942   30.098    
0.38      561.527   -320.684  6304.25   0         0         48.2689   16.7002   330.63    0.126353  269.901   30.1086   
0.39      508.063   -320.378  6301.22   0         0         48.2614   16.6997   330.63    0.112232  269.908   30.1951   
0.4       455.156   -320.285  6301.37   0         0         48.2491   16.7005   330.63    0.0919424 269.907   30.2014   
0.41      398.199   -321.423  6304.43   0         0         48.2344   16.6923   330.63    0.0646786 269.932   30.1988   
0.42      337.301   -321.626  6306.86   0         0         48.2211   16.6895   330.63    0.0395444 269.903   30.2018   
0.43      279.2     -323.032  6307.61   0         0         48.211    16.6902   330.63    0.0244544 269.926   30.1974   
0.44      225.482   -324.267  6310.15   0         0         48.1988   16.69     330.63    0.00775877 269.899   30.2046   
0.45      172.543   -324.738  6311.35   0         0         48.1846   16.6898   330.63    -0.0122151 269.913   30.1236   
0.46      115.684   -326.262  6309.19   0         0         48.1699   16.6906   330.63    -0.0271271 269.91    30.0944   
0.47      60.4493   -328.312  6306.93   0         0         48.1564   16.6875   330.63    -0.0419097 269.89    30.1025   
0.48      9.38316   -329.844  6304.3    0         0         48.1401   16.6796   330.63    -0.0607309 269.886   30.0989   
0.49      -45.8676  -330.75   6300.16   0         0         48.1196   16.6801   330.63    -0.0861434 269.903   30.0999   
0.5       -105.411  -331.261  6297.94   0         0         48.1015   16.6801   330.63    -0.108913 269.922   30.1011   
0.51      -163.152  -332.071  6295.25   0         0         48.0863   16.6722   330.63    -0.121798 269.907   30.0973   
0.52      -217.465  -331.514  6292.1    0         0         48.0704   16.6694   330.63    -0.136837 269.902   30.1048   
0.53      -271.975  -331.637  6291.1    0         0         48.0513   16.6704   330.63    -0.160336 269.939   30.0904   
0.54      -330.601  -332.764  6293.72   0         0         48.0303   16.6692   330.63    -0.189425 269.935   30.1411   
0.551     -391.987  -333.161  6295.01   0         0         48.0134   16.6608   330.63    -0.211608 269.91    30.2044   
0.561     -449.819  -333.975  6295.55   0         0         47.9994   16.6598   330.63    -0.225316 269.935   30.2031   
0.571     -502.795  -335.338  6297.2    0         0         47.9862   16.6601   330.63    -0.242966 269.941   30.1746   
0.581     -555.567  -335.71   6298.4    0         0         47.9715   16.6599   330.63    -0.263998 269.95    30.0948   
0.591     -612.833  -337.154  6296.14   0         0         47.9589   16.66     330.63    -0.285808 269.966   30.1001   
0.601     -668.424  -338.761  6293.67   0         0         47.9509   16.66     330.63    -0.297489 269.929   30.1133   
0.611     -717.417  -340.46   6290.25   0         0         47.9415   16.66     330.63    -0.31419  269.915   30.2025   
0.621     -769.892  -341.133  6285.46   0         0         47.9294   16.66     330.63    -0.336477 269.931   30.1977   
0.631     -828.499  -341.218  6282.18   0         0         47.92     16.66     330.63    -0.35914  269.953   30.2018   
0.641     -885.441  -341.941  6279.94   0         0         47.9114   16.66     330.63    -0.372749 269.933   30.1987   
0.651     -937.899  -341.719  6276.91   0         0         47.9089   16.66     330.63    -0.386821 269.96    30.2013   
0.661     -989.474  -341.413  6276.58   0         0         47.8996   16.66     330.63    -0.408575 269.972   30.1986   
0.671     -1045.63  -342.946  6279.28   0         0         47.8881   16.66     330.63    -0.43839  270.002   30.202    
0.681     -1106.27  -343.448  6281.33   0         0         47.876    16.66     330.63    -0.464357 269.959   30.197    
0.691     -1164.75  -344.305  6282.24   0         0         47.8703   16.66     330.63    -0.480546 269.985   30.2055   
0.701     -1218.09  -345.488  6283.97   0         0         47.8651   16.66     330.63    -0.497555 269.988   30.1263   
0.711     -1270.12  -346.108  6285.6    0         0         47.856    16.66     330.63    -0.518738 270.013   30.0935   
0.721     -1326.51  -347.51   6283.96   0         0         47.8472   16.6599   330.63    -0.542342 269.998   30.1036   
0.731     -1383.63  -348.89   6281.92   0         0         47.8405   16.6601   330.63    -0.558812 269.992   30.0974   
0.741     -1434.69  -350.328  6279.77   0         0         47.8361   16.6598   330.63    -0.57536  269.968   30.1023   
0.751     -1487.91  -351.255  6275.81   0         0         47.8244   16.6603   330.63    -0.601539 270.002   30.0976   
0.761     -1546.38  -351.248  6273.34   0         0         47.8154   16.6594   330.63    -0.625783 269.999   30.1029   
0.771     -1604.84  -352.046  6271.6    0         0         47.8099   16.6623   330.63    -0.643732 270.001   30.0957   
0.781     -1658.95  -352.003  6268.6    0         0         47.8045   16.6704   330.63    -0.658393 269.999   30.1081   
0.791     -1710.7   -351.849  6266.92   0         0         47.7961   16.6697   330.63    -0.680339 270.006   30.0636   
0.801     -1766.1   -353.191  6268.82   0         0         47.783    16.6702   330.63    -0.712447 270.008   29.9922   
0.811     -1827.2   -354.16   6270.59   0         0         47.7722   16.6699   330.63    -0.742788 270.016   30.0039   
0.821     -1887.72  -354.732  6270.69   0         0         47.7625   16.6701   330.63    -0.761145 270.024   29.9976   
0.831     -1942.07  -355.627  6272.19   0         0         47.7595   16.6699   330.63    -0.778082 270.051   30.0014   
0.841     -1992.92  -356.103  6273.65   0         0         47.7519   16.6701   330.63    -0.797762 270.019   29.999    
0.851     -2047.75  -356.943  6272.36   0         0         47.7424   16.6699   330.63    -0.822328 270.042   30.0004   
0.861     -2104.63  -358.045  6270.29   0         0         47.7348   16.6701   330.63    -0.843422 270.025   29.9997   
0.871     -2156.27  -359.305  6267.95   0         0         47.7279   16.6699   330.63    -0.864049 270.025   29.9995   
0.881     -2208.01  -360.351  6263.34   0         0         47.718    16.6702   330.63    -0.887811 270.006   30.0044   
0.891     -2264.68  -360.147  6259.85   0         0         47.7072   16.6696   330.63    -0.914303 270.078   30.0928   
0.901     -2321.46  -360.817  6257.92   0         0         47.7      16.6779   330.63    -0.935858 270.062   30.1006   
0.911     -2375.62  -360.844  6255.75   0         0         47.6925   16.6805   330.631   -0.95333  270.063   30.1013   
0.921     -2427.46  -360.169  6254.44   0         0         47.6832   16.6797   330.626   -0.976152 270.092   30.0971   
0.931     -2480.65  -361.401  6257.34   0         0         47.6703   16.6802   330.619   -1.00729  270.128   30.1054   
0.941     -2538.84  -362.545  6260.5    0         0         47.6567   16.6799   330.621   -1.0391   270.1     30.0904   
0.951     -2599.15  -362.697  6262.77   0         0         47.6453   16.6801   330.62    -1.06582  270.141   30.1772   
0.961     -2655.04  -363.533  6265.33   0         0         47.6385   16.68     330.621   -1.08319  270.114   30.1974   
0.971     -2705.76  -363.792  6268.24   0         0         47.6304   16.68     330.613   -1.10214  270.135   30.215    
0.981     -2757.68  -364.829  6268.3    0         0         47.6215   16.68     330.609   -1.12645  270.139   30.0813   
0.991     -2812.91  -366.089  6267.04   0         0         47.6121   16.68     330.602   -1.14804  270.142   29.9862   
1.001     -2862.91  -367.294  6266.67   0         0         47.6028   16.68     330.597   -1.16739  270.111   30.0006   
1.011     -2912.13  -368.2    6264.87   0         0         47.5935   16.68     330.59    -1.1922   270.126   30.0404   
1.021     -2965.65  -368.106  6263.51   0         0         47.5831   16.68     330.585   -1.21767  270.169   30.1124   
1.031     -3019.31  -368.699  6264.09   0         0         47.573    16.6801   330.577   -1.2378   270.18    30.0931   
1.041     -3069.43  -369.139  6264.05   0         0         47.5677   16.6799   330.571   -1.25682  270.159   30.1043   
1.051     -3116.63  -368.515  6263.48   0         0         47.5601   16.6802   330.565   -1.27506  270.198   30.0971   
1.061     -3164.25  -369.474  6265.77   0         -2.0684E-7 47.5485   16.6796   330.558   -1.30201  270.21    30.102    
1.071     -3215.04  -370.688  6269.61   0         5.80267E-7 47.5358   16.6814   330.551   -1.33303  270.22    30.0982   
1.081     -3268.68  -370.847  6271.76   0         -5.10935E-6 47.5238   16.69     330.545   -1.35824  270.222   30.1018   
1.091     -3318.89  -371.236  6273.86   0         1.15201E-5 47.5182   16.6899   330.538   -1.37491  270.251   30.0971   
1.101     -3362.01  -371.816  6276.53   0         -2.29462E-5 47.5111   16.6901   330.532   -1.3868   270.228   30.1115   
1.111     -3402.64  -372.305  6276.88   0         3.86143E-5 47.5057   16.69     330.524   -1.40738  270.272   30.1985   
1.121     -3446.93  -373.169  6276.07   0         -6.30481E-5 47.496    16.69     330.519   -1.42782  270.252   30.1995   
1.131     -3489.35  -373.507  6276.35   0         9.91713E-5 47.4896   16.69     330.511   -1.44631  270.23    30.1978   
1.141     -3529.27  -374.038  6274.36   0         -0.000156397 47.4801   16.69     330.51    -1.46781  270.215   30.1084   
1.151     -3572.2   -373.462  6271.75   0         0.000265684 47.4696   16.69     330.506   -1.49139  270.277   30.0996   
1.161     -3615.73  -373.623  6270.49   0         0.0005874 47.4621   16.69     330.499   -1.51235  270.259   30.0986   
1.171     -3657.14  -374.144  6269.9    0         0.00117235 47.4548   16.69     330.501   -1.52943  270.265   30.1791   
1.181     -3696.61  -372.946  6268.37   0         0.00123744 47.4471   16.69     330.492   -1.54821  270.263   30.2065   
1.191     -3735.55  -373.073  6269.74   0         -0.0002639 47.4369   16.69     330.489   -1.57212  270.301   30.1956   
1.201     -3776.33  -374.053  6273.43   0         0.00194061 47.4232   16.69     330.49    -1.60032  270.303   30.2043   
1.211     -3820.55  -374.02   6275.89   0         8.02899E-5 47.4124   16.69     330.481   -1.62766  270.305   30.1948   
1.221     -3863.96  -374.113  6277.92   0         0.00105003 47.4042   16.69     330.481   -1.64579  270.319   30.2089   
1.231     -3901.44  -374.363  6280.21   0         0.000988874 47.3994   16.69     330.474   -1.65723  270.344   30.1437   
1.241     -3934.64  -374.527  6281.52   0         -0.000302631 47.3933   16.69     330.47    -1.67334  270.35    30.0907   
1.251     -3971.37  -374.975  6280.86   0         0.000922153 47.3836   16.69     330.468   -1.69559  270.36    30.1056   
1.261     -4009.66  -374.758  6281.07   0         0.00100105 47.374    16.69     330.459   -1.71488  270.34    30.0952   
1.271     -4044.79  -375.485  6279.87   0         0.00109207 47.3659   16.6901   330.461   -1.73404  270.348   30.1053   
1.281     -4081.07  -375.329  6277.26   0         -0.000129647 47.3585   16.6899   330.456   -1.75268  270.382   30.0917   
1.291     -4117.94  -374.975  6276.55   0         0.00192441 47.3495   16.6902   330.449   -1.77198  270.399   30.1317   
1.301     -4154.32  -375.587  6276.4    0         0.00193043 47.3407   16.6897   330.451   -1.78944  270.372   30.2063   
1.311     -4189.56  -374.61   6274.83   0         0.00105791 47.3332   16.6905   330.449   -1.80874  270.388   30.1967   
1.321     -4224.21  -373.957  6274.28   0         0.00137375 47.3252   16.6941   330.44    -1.82918  270.408   30.202    
1.331     -4258.25  -374.821  6276.77   0         0.00102404 47.314    16.6969   330.44    -1.85265  270.441   30.1985   
1.341     -4295.86  -375.013  6278.69   0         0.00245063 47.301    16.7007   330.439   -1.88254  270.404   30.2011   
1.351     -4336.13  -374.637  6279.45   0         0.00245827 47.2912   16.6996   330.43    -1.90211  270.437   30.199    
1.361     -4371.07  -374.592  6281.07   0         0.000684123 47.2886   16.7002   330.43    -1.9152   270.457   30.2012   
1.371     -4399.89  -374.067  6282.64   0         0.000713155 47.2805   16.6999   330.43    -1.9272   270.464   30.1984   
1.381     -4430.08  -374.208  6281.77   0         0.00252591 47.2724   16.7001   330.422   -1.9484   270.46    30.2024   
1.391     -4464.14  -373.757  6281.49   0         0.000485367 47.2629   16.6999   330.419   -1.96919  270.452   30.1961   
1.401     -4495.58  -373.676  6280.01   0         0.00251564 47.2557   16.7      330.421   -1.98688  270.415   30.206    
1.411     -4526.77  -373.678  6276.13   0         0.00384499 47.2451   16.7      330.417   -2.0058   270.47    30.1899   
1.421     -4558.49  -372.45   6273.56   0         0.00135937 47.2367   16.7      330.41    -2.02598  270.495   30.3597   
1.431     -4590.41  -372.617  6272.65   0         0.000573312 47.2282   16.7      330.41    -2.04538  270.495   30.405    
1.441     -4621.69  -371.483  6271.43   0         0.00522162 47.2192   16.7      330.411   -2.06508  270.473   30.4052   
1.451     -4652.59  -370.387  6270.33   0         0.00364261 47.2098   16.7      330.405   -2.084    270.51    30.3317   
1.461     -4682.58  -370.533  6273.25   0         0.00226513 47.2004   16.7      330.399   -2.10743  270.512   30.299    
1.471     -4713.83  -370.655  6276      0         0.00286712 47.188    16.7      330.4     -2.13462  270.509   30.2878   
1.481     -4749.13  -369.761  6277.75   0         0.0031671 47.1765   16.7      330.4     -2.15947  270.524   30.4042   
1.491     -4782.24  -369.098  6279.63   0         0.00334191 47.1703   16.7      330.391   -2.17125  270.552   30.5195   
1.501     -4807.83  -368.383  6282.09   0         0.00282527 47.1682   16.7      330.39    -2.18159  270.529   30.49     
1.511     -4832.24  -368.285  6282.33   0         0.000266227 47.1585   16.7      330.387   -2.19887  270.576   30.5061   
1.521     -4862.25  -368.309  6281.74   0         0.00479001 47.1492   16.7      330.379   -2.21983  270.508   30.4963   
1.531     -4891.7   -368.061  6281.9    0         0.00304127 47.1405   16.7      330.381   -2.23683  270.52    30.5023   
1.541     -4918.89  -368.491  6279.75   0         0.00162611 47.133    16.7      330.372   -2.25579  270.522   30.4987   
1.551     -4947.57  -367.212  6277.91   0         -0.000232272 47.1258   16.7      330.369   -2.27325  270.564   30.5007   
1.561     -4976.2   -367.279  6277.82   0         0.00574152 47.1168   16.7      330.37    -2.29235  270.561   30.4999   
1.571     -5004.61  -366.982  6277.44   0         0.00458595 47.107    16.7      330.362   -2.30914  270.567   30.4998   
1.581     -5032.57  -365.51   6276.12   0         0.00206665 47.0992   16.7      330.359   -2.32806  270.583   30.5004   
1.591     -5060.16  -365.694  6276.85   0         0.00476396 47.0906   16.7      330.36    -2.34765  270.603   30.4988   
1.601     -5087.38  -366.138  6279.46   0         0.00462917 47.0787   16.7      330.352   -2.37281  270.599   30.5066   
1.611     -5119.5   -365.612  6280.49   0         0.00358704 47.0647   16.7      330.349   -2.40214  270.601   30.5968   
1.621     -5152.1   -365.05   6281.45   0         0.004784  47.058    16.7      330.35    -2.41793  270.6     30.5981   
1.632     -5178.35  -364.27   6283.5    0         0.00294226 47.0511   16.7      330.341   -2.42747  270.6     30.6021   
1.642     -5200.42  -363.586  6284.38   0         0.00517586 47.0463   16.7      330.34    -2.44295  270.601   30.5091   
1.652     -5226.42  -363.779  6283.04   0         0.00742362 47.0364   16.7      330.339   -2.46514  270.599   30.5037   
1.662     -5254.77  -362.672  6283.5    0         0.00596363 47.0274   16.7      330.33    -2.48483  270.603   30.4885   
1.672     -5279.45  -362.743  6281.28   0         0.00305264 47.0183   16.7      330.33    -2.5026   270.589   30.7241   
1.682     -5304.51  -361.438  6277.97   0         0.00599579 47.0104   16.7      330.33    -2.52163  270.605   30.8215   
1.692     -5330.87  -360.303  6275.96   0         0.00503122 47.0005   16.7      330.321   -2.5423   270.647   30.7844   
1.702     -5357.83  -360.453  6275.53   0         0.00484261 46.9897   16.7      330.319   -2.56431  270.609   30.8669   
1.712     -5383.22  -358.571  6274.17   0         0.00686868 46.9813   16.7      330.32    -2.58274  270.625   30.9087   
1.722     -5408.57  -357.682  6274.58   0         0.00456965 46.9722   16.7      330.312   -2.60288  270.66    30.8896   
1.732     -5432.76  -357.834  6277.43   0         0.00591478 46.9598   16.7      330.309   -2.62831  270.694   30.9519   
1.742     -5459.74  -357.653  6279.67   0         0.00946158 46.9465   16.7      330.311   -2.65959  270.666   31.0083   
1.752     -5491.29  -356.089  6281.47   0         0.00543969 46.9354   16.7      330.302   -2.68209  270.702   30.9961   
1.762     -5517.64  -355.386  6283.43   0         0.0068952 46.9301   16.7      330.3     -2.69014  270.699   31.0026   
1.772     -5537.18  -353.909  6285.45   0         0.00605059 46.9274   16.7      330.298   -2.70165  270.7     30.9982   
1.782     -5557.56  -353.955  6284.89   0         0.00788258 46.9173   16.7      330.289   -2.7195   270.702   31.0015   
1.792     -5583.1   -353.217  6284.91   0         0.00539149 46.9081   16.7      330.291   -2.73995  270.696   30.9984   
1.802     -5606.31  -353.066  6285.08   0         0.00634771 46.8999   16.7      330.283   -2.75651  270.686   31.002    
1.812     -5628.65  -352.785  6282.5    0         0.00809106 46.893    16.7      330.279   -2.77402  270.692   30.9962   
1.822     -5652.5   -351.195  6281.1    0         0.00637722 46.8837   16.7      330.281   -2.79389  270.728   31.0147   
1.832     -5677.36  -351.626  6281.09   0         0.00775907 46.8739   16.7      330.273   -2.81432  270.74    31.1014   
1.842     -5701.37  -350.435  6280.62   0         0.00723174 46.8652   16.7      330.269   -2.83135  270.694   31.0965   
1.852     -5724.24  -348.967  6279.31   0         0.00649294 46.8577   16.7      330.271   -2.8484   270.769   31.113    
1.862     -5746.47  -349.103  6280.52   0         0.00929087 46.8468   16.7      330.267   -2.87049  270.791   31.286    
1.872     -5769.32  -349.329  6282.6    0         0.00788549 46.8322   16.7      330.259   -2.8993   270.793   31.3035   
1.882     -5798.61  -348.347  6283.55   0         0.00654128 46.8194   16.7      330.261   -2.92853  270.796   31.2979   
1.892     -5826.22  -347.273  6284.61   0         0.00859895 46.8114   16.7      330.259   -2.94378  270.801   31.302    
1.902     -5846.49  -346.434  6286.34   0         0.00975947 46.8084   16.7      330.25    -2.95265  270.802   31.2977   
1.912     -5864.16  -345.898  6286.55   0         0.00640746 46.7998   16.7      330.25    -2.9698   270.829   31.3031   
1.922     -5886.5   -346.131  6285.64   0         0.00670243 46.789    16.7      330.248   -2.99248  270.8     31.2955   
1.932     -5910.56  -344.9    6286.15   0         0.00787742 46.7781   16.7      330.24    -3.01558  270.796   31.3073   
1.942     -5935.07  -345.566  6282.82   0         0.00619579 46.7603   16.7      330.24    -3.05322  270.782   31.2853   
1.952     -5972.62  -343.251  6279.09   0         0.00762827 46.7307   16.7      330.24    -3.11369  270.81    31.4193   
1.962     -6023.25  -342.426  6276.45   0         0.00899918 46.6974   16.7      330.232   -3.18532  270.822   31.521    
1.972     -6081.2   -341.494  6274.96   0         0.00471706 46.663    16.7      330.229   -3.25376  270.806   31.4826   
1.982     -6140.85  -338.548  6272.35   0         0.00793911 46.6262   16.7      330.23    -3.32837  270.828   31.5538   
1.992     -6206.68  -337.214  6271.43   0         0.00798247 46.5853   16.7      330.229   -3.4107   270.905   31.6048   
2.002     -6274.48  -336.731  6271.96   0         0.00478418 46.539    16.7      330.22    -3.50619  270.897   31.5989   
2.012     -6352.92  -334.93   6272.34   0         0.00725719 46.4836   16.6999   330.22    -3.62298  270.904   31.5994   
2.022     -6440.61  -331.702  6271.54   0         0.00623907 46.431    16.7001   330.219   -3.73257  270.913   31.602    
2.032     -6524.33  -328.849  6271.11   0         0.00330161 46.3807   16.6998   330.21    -3.83604  270.964   31.5946   
2.042     -6609.15  -324.846  6270.87   0         0.0092908 46.3273   16.7003   330.209   -3.94977  270.966   31.6232   
2.052     -6696.28  -322.744  6267.61   0         0.0062571 46.2705   16.6993   330.201   -4.06957  271.006   31.7046   
2.062     -6792.85  -317.94   6265.53   0         0.00382003 46.2134   16.7028   330.195   -4.19111  271.001   31.6973   
2.072     -6887.29  -315.244  6262.95   0         0.0086186 46.1572   16.7106   330.186   -4.31023  271.018   31.7012   
2.082     -6981.02  -311.372  6257.97   0         0.00785194 46.0979   16.7096   330.179   -4.43863  271.084   31.6998   
2.092     -7074.5   -305.25   6255.08   0         0.00488131 46.037    16.7103   330.171   -4.56865  271.187   31.6974   
2.102     -7163.14  -302.645  6253.08   0         0.0039266 45.9819   16.7098   330.163   -4.689    271.195   31.7218   
2.112     -7235.3   -297.547  6251.83   0         0.00409265 45.9371   16.7103   330.155   -4.78756  271.237   32.1582   
2.122     -7293.55  -292.432  6250.29   0         0.00111601 45.8958   16.7097   330.148   -4.88174  271.312   32.2097   
2.132     -7350.28  -288.945  6251.91   0         0.00200067 45.8523   16.7105   330.138   -4.97848  271.381   32.1954   
2.142     -7397.23  -286.386  6254.71   0         0.00383249 45.8059   16.7091   330.129   -5.07991  271.412   32.2029   
2.152     -7451.99  -280.629  6257.44   0         -0.000375166 45.7567   16.7147   330.117   -5.19203  271.461   32.1981   
2.162     -7498.38  -275.977  6258.41   0         0.00147916 45.7204   16.7209   330.104   -5.2742   271.476   32.2011   
2.172     -7531.82  -271.536  6259.1    0         0.00205576 45.6883   16.7196   330.088   -5.34791  271.507   32.1988   
2.182     -7562.76  -267.749  6260      0         0.000180234 45.657    16.7203   330.073   -5.41899  271.515   32.2011   
2.192     -7592.23  -264.858  6260.41   0         0.00175515 45.6225   16.7198   330.058   -5.49467  271.506   32.1962   
2.202     -7628.2   -258.695  6264.11   0         0.00233099 45.5906   16.7201   330.045   -5.56491  271.476   32.2504   
2.212     -7648.9   -259.306  6264.41   0         6.54049E-5 45.5606   16.7199   330.033   -5.62972  271.49    32.3213   
2.222     -7671.77  -254.263  6264.23   0         0.00187266 45.5195   16.72     330.022   -5.71737  271.502   32.2673   
2.232     -7697.55  -250.438  6264.69   0         0.00230503 45.4776   16.72     330.011   -5.80874  271.542   32.474    
2.242     -7723.17  -249.491  6265.78   0         0.000913961 45.437    16.72     330       -5.89052  271.512   32.75     
2.252     -7738.75  -245.182  6267.16   0         0.000969467 45.4038   16.72     329.991   -5.96114  271.56    32.6488   
2.262     -7759.49  -241.694  6268.1    0         0.0019824 45.3653   16.72     329.981   -6.04181  271.594   32.8699   
2.272     -7782.95  -239.486  6270.96   0         -3.75037E-5 45.3278   16.72     329.971   -6.11999  271.662   33.2369   
2.282     -7797.81  -239.14   6273.51   0         7.48275E-5 45.2863   16.72     329.96    -6.20661  271.636   33.1706   
2.292     -7827.61  -234.324  6275.08   0         -8.30504E-5 45.245    16.72     329.952   -6.29151  271.666   33.2709   
2.302     -7843.86  -232.945  6275.64   0         0.000103121 45.2181   16.72     329.943   -6.34755  271.665   33.5076   
2.312     -7859.93  -229.653  6278.53   0         -0.000162696 45.1862   16.72     329.938   -6.41341  271.719   33.4919   
2.322     -7876.28  -227.385  6280.35   0         0.000398086 45.1578   16.72     329.93    -6.47113  271.67    33.5235   
2.332     -7894.83  -225.624  6281.28   0         0.000810267 45.1253   16.72     329.93    -6.537    271.671   33.6947   
2.342     -7919.18  -222.26   6283.72   0         -0.000195073 45.1      16.72     329.92    -6.58967  271.661   33.6985   
2.352     -7926.74  -224.939  6281.71   0         0.000105967 45.0721   16.72     329.921   -6.64627  271.623   33.7157   
2.362     -7944.08  -218.963  6280.51   0         -7.05841E-5 45.0343   16.72     329.913   -6.72575  271.637   34.1466   
2.372     -7964.14  -218.17   6278.78   0         5.17444E-5 44.9969   16.72     329.91    -6.80029  271.679   34.2152   
2.382     -7981.38  -217.568  6279.05   0         -5.07131E-5 44.9642   16.72     329.905   -6.86865  271.637   34.1897   
2.392     -7985.79  -214.189  6278.39   0         0.000989944 44.9303   16.72     329.9     -6.94091  271.662   34.583    
2.402     -8005.64  -212.88   6278.04   0         2.3797E-5 44.8882   16.72     329.898   -7.02705  271.694   34.7543   
2.412     -8016.96  -212.138  6279.36   0         -1.54198E-5 44.8557   16.72     329.89    -7.09409  271.759   34.6286   
2.422     -8019.37  -212.584  6280.6    0         1.67012E-5 44.8135   16.72     329.889   -7.17882  271.727   35.2597   
2.432     -8042.08  -207.779  6281.88   0         -2.22407E-5 44.7732   16.72     329.88    -7.26208  271.747   35.5424   
2.442     -8045.4   -207.725  6282.19   0         3.20637E-5 44.7437   16.72     329.879   -7.32432  271.77    35.4918   
2.452     -8058.13  -203.685  6283.83   0         -6.20587E-5 44.7087   16.72     329.871   -7.39817  271.819   35.4872   
2.462     -8063.98  -202.91   6283.4    0         0.000971985 44.6798   16.72     329.867   -7.4542   271.77    35.5377   
2.472     -8073.59  -202.098  6282.57   0         6.85909E-5 44.6423   16.72     329.86    -7.53101  271.771   35.4118   
2.482     -8088.94  -198.883  6284.47   0         -3.10071E-5 44.6127   16.72     329.858   -7.59033  271.747   35.9685   
2.492     -8085.59  -201.203  6282.42   0         1.83456E-5 44.5792   16.72     329.85    -7.66051  271.714   36.6939   
2.502     -8092.23  -195.448  6281.16   0         -1.17017E-5 44.5348   16.72     329.848   -7.75089  271.702   36.5556   
2.512     -8099     -196.003  6279.78   0         7.50291E-6 44.4897   16.72     329.84    -7.84363  271.77    36.623    
2.522     -8104.72  -194.095  6281.48   0         -4.70409E-6 44.4499   16.72     329.84    -7.9282   271.724   36.5926   
2.532     -8095.75  -190.885  6281.05   0         2.80631E-6 44.4095   16.72     329.83    -8.00936  271.72    36.5895   
2.542     -8110.35  -190.115  6281.61   0         -1.54143E-6 44.3651   16.72     329.83    -8.10178  271.753   36.6847   
2.552     -8113.51  -188.112  6283.22   0         7.36567E-7 44.3407   16.72     329.821   -8.14977  271.814   37.1203   
2.562     -8107.87  -188.572  6284.78   0         -2.6422E-7 44.3076   16.72     329.82    -8.2151   271.795   37.0807   
2.572     -8124.15  -184.79   6286.51   0         0         44.2767   16.7201   329.813   -8.27835  271.8     37.1414   
2.582     -8122.41  -185.447  6286.58   0         0         44.2516   16.7199   329.81    -8.33086  271.854   37.4851   
2.592     -8133.94  -182.295  6287.72   0         0         44.2153   16.7201   329.807   -8.40249  271.849   37.4957   
2.602     -8135.49  -182.129  6288.62   0         0         44.1872   16.7198   329.799   -8.45883  271.836   37.5187   
2.612     -8140.41  -181.863  6287.8    0         0         44.1447   16.7204   329.8     -8.54564  271.803   37.8278   
2.622     -8158.95  -178.486  6290.26   0         0         44.1124   16.7194   329.8     -8.60865  271.783   37.9496   
2.632     -8156.18  -181.625  6288.8    0         0         44.0808   16.7211   329.793   -8.67006  271.783   37.8304   
2.642     -8165.43  -177.176  6287.2    0         0         44.0437   16.7157   329.789   -8.74692  271.733   39.0673   
2.652     -8168.78  -177.675  6285.01   0         0         44.0044   16.7169   329.79    -8.82708  271.841   39.4781   
2.662     -8175.54  -177.241  6284.74   0         0         43.9609   16.7121   329.79    -8.91476  271.765   39.3652   
2.672     -8166.91  -174.206  6283.32   0         0         43.9171   16.7092   329.788   -9.00389  271.748   39.4161   
2.682     -8176.62  -173.867  6282.39   0         0         43.8652   16.7105   329.78    -9.11442  271.779   39.3999   
2.692     -8177.69  -171.768  6282.3    0         0         43.8282   16.7097   329.78    -9.18846  271.856   39.3769   
2.702     -8167.5   -172.551  6283.17   0         0         43.7838   16.7102   329.78    -9.27977  271.826   39.6425   
2.712     -8175.47  -169.634  6284.19   0         0         43.7399   16.7099   329.781   -9.36793  271.824   39.9741   
2.723     -8171.24  -169.442  6284.27   0         0         43.7062   16.7101   329.775   -9.43707  271.861   39.8244   
2.733     -8171.53  -167.318  6284.8    0         0         43.6693   16.71     329.769   -9.51632  271.898   40.1579   
2.743     -8167.96  -164.592  6285.58   0         0         43.6365   16.71     329.771   -9.57828  271.857   40.5369   
2.753     -8158.63  -165.421  6283.72   0         0         43.5939   16.71     329.764   -9.66657  271.815   40.4864   
2.763     -8169.41  -161.346  6284.5    0         0         43.5537   16.71     329.759   -9.74656  271.785   40.502    
2.773     -8158.64  -163.135  6284.25   0         0         43.5212   16.71     329.761   -9.8133   271.821   40.508    
2.783     -8156.31  -160.763  6283.99   0         0         43.4791   16.71     329.752   -9.89612  271.731   40.4728   
2.793     -8150.02  -158.223  6283.68   0         0         43.4399   16.71     329.749   -9.97593  271.793   40.628    
2.803     -8149.42  -159.176  6283.72   0         0         43.3971   16.71     329.75    -10.0658  271.773   41.3179   
2.813     -8138.07  -155.724  6284.87   0         0         43.3572   16.71     329.741   -10.1445  271.74    41.2775   
2.823     -8133.85  -155.988  6284.88   0         0         43.3106   16.71     329.74    -10.2403  271.756   41.3532   
2.833     -8136     -154.739  6285.89   0         0         43.2771   16.71     329.737   -10.3105  271.833   41.8613   
2.843     -8127.96  -155.472  6287.09   0         0         43.2438   16.71     329.729   -10.3748  271.818   41.9108   
2.853     -8131.74  -154.416  6288.39   0         0         43.2118   16.71     329.731   -10.4353  271.799   41.8969   
2.863     -8133.05  -153.08   6289.37   0         0         43.1842   16.71     329.722   -10.4895  271.806   42.1576   
2.873     -8128.23  -152.74   6290.35   0         0         43.1554   16.71     329.719   -10.5522  271.841   42.2126   
2.883     -8132.45  -150.641  6291.81   0         0         43.1161   16.71     329.721   -10.628   271.802   42.1881   
2.893     -8125.21  -151.299  6292.04   0         0         43.0787   16.71     329.712   -10.7029  271.806   42.4153   
2.903     -8133.59  -150.492  6291.61   0         0         43.033    16.71     329.71    -10.7959  271.803   42.537    
2.913     -8132.68  -150.017  6292.51   0         0         43.0001   16.71     329.71    -10.8608  271.763   42.4475   
2.923     -8123.76  -151.668  6291.64   0         0         42.9575   16.7101   329.711   -10.9455  271.701   42.9285   
2.933     -8119.47  -148.381  6290.37   0         0         42.9126   16.7099   329.704   -11.0397  271.722   43.2812   
2.943     -8110.75  -149.814  6288.97   0         0         42.8599   16.7101   329.699   -11.1497  271.769   43.1144   
2.953     -8103.65  -148.225  6289.09   0         0         42.8068   16.7098   329.7     -11.2605  271.737   43.6004   
2.963     -8088.64  -146.999  6288.51   0         0         42.7552   16.7105   329.7     -11.3637  271.739   44.0891   
2.973     -8087.79  -146.567  6288.66   0         0         42.7063   16.7059   329.698   -11.4648  271.762   43.9147   
2.983     -8078.04  -145.584  6288.33   0         0         42.674    16.7077   329.689   -11.5315  271.774   44.2798   
2.993     -8071.26  -145.68   6289.19   0         0         42.6399   16.7006   329.69    -11.6003  271.76    44.7441   
3.003     -8065.64  -144.261  6289.29   0         0         42.6118   16.6998   329.69    -11.6571  271.746   44.6798   
3.013     -8056.16  -143.753  6289.54   0         0         42.5773   16.7001   329.691   -11.7229  271.777   44.7115   
3.023     -8047.08  -143.575  6288.94   0         0         42.5366   16.6999   329.688   -11.8027  271.768   44.6942   
3.033     -8038.4   -141.753  6289.92   0         0         42.4933   16.7      329.68    -11.8893  271.783   44.7001   
3.043     -8027.33  -142.609  6289.33   0         0         42.4457   16.7      329.68    -11.9888  271.736   44.7219   
3.053     -8024.31  -140.449  6290.68   0         0         42.4044   16.7      329.68    -12.0749  271.744   44.9083   
3.063     -8011.15  -141.147  6290.81   0         0         42.3646   16.7      329.681   -12.1527  271.701   44.881    
3.073     -8003.83  -140.451  6290.97   0         0         42.3259   16.7      329.674   -12.2282  271.656   44.99     
3.083     -7994.7   -138.538  6291.06   0         0         42.2886   16.7      329.669   -12.3072  271.667   46.3894   
3.093     -7988.39  -139.367  6291.01   0         0         42.2542   16.7      329.671   -12.3779  271.72    46.5184   
3.103     -7982.33  -137.697  6291.77   0         0         42.2181   16.7      329.669   -12.4488  271.637   46.4994   
3.113     -7977.19  -138.105  6291.69   0         0         42.1848   16.7      329.671   -12.5147  271.655   46.4903   
3.123     -7977.92  -137.702  6292.29   0         0         42.1555   16.7      329.664   -12.5761  271.687   46.5227   
3.133     -7970.39  -136.962  6292.85   0         0         42.1255   16.7      329.659   -12.6337  271.704   46.4541   
3.143     -7968.72  -137.765  6294.3    0         0         42.087    16.7      329.661   -12.7076  271.683   47.0823   
3.153     -7963.29  -136.49   6294.55   0         0         42.0478   16.7      329.659   -12.7908  271.664   47.3489   
3.163     -7956.38  -136.664  6295.27   0         0         42.0015   16.7      329.661   -12.8818  271.694   47.2806   
3.173     -7951.99  -135.38   6294.9    0         0         41.9538   16.7001   329.656   -12.981   271.688   47.3045   
3.183     -7946.49  -134.538  6295.31   0         0         41.9108   16.6999   329.649   -13.0699  271.682   47.3099   
3.193     -7940.87  -134.738  6294.91   0         0         41.8648   16.7001   329.65    -13.1619  271.682   47.2627   
3.203     -7932.27  -132.892  6294.45   0         0         41.8265   16.6998   329.65    -13.241   271.636   47.5669   
3.213     -7924.24  -133.237  6294.7    0         0         41.7827   16.7003   329.65    -13.3308  271.618   47.9775   
3.223     -7911.86  -131.598  6294.06   0         0         41.7399   16.6994   329.651   -13.4186  271.589   47.8255   
3.233     -7906.16  -131.249  6293.8    0         0         41.6913   16.6978   329.648   -13.5173  271.648   48.1487   
3.243     -7894.98  -130.531  6293.48   0         0         41.6512   16.6974   329.639   -13.6006  271.615   48.6619   
3.253     -7886.58  -129.547  6293.61   0         0         41.6073   16.6893   329.64    -13.6876  271.589   48.5407   
3.263     -7876.72  -129.058  6293.32   0         0         41.5687   16.6904   329.64    -13.765   271.598   48.7716   
3.273     -7866.25  -128.327  6293.31   0         0         41.5281   16.6898   329.64    -13.8505  271.642   49.3247   
3.283     -7851.48  -127.759  6292.78   0         0         41.4868   16.6901   329.64    -13.9347  271.597   49.2824   
3.293     -7841.03  -127.135  6292.86   0         0         41.439    16.6899   329.641   -14.0299  271.64    49.3316   
3.303     -7828.74  -126.161  6292.85   0         0         41.392    16.6901   329.638   -14.1249  271.589   49.4942   
3.313     -7819.62  -125.886  6293.37   0         0         41.3496   16.69     329.63    -14.2135  271.624   49.499    
3.323     -7811.62  -125.193  6293.64   0         0         41.3102   16.69     329.63    -14.2914  271.574   49.516    
3.333     -7802.69  -124.96   6293.59   0         0         41.2777   16.69     329.63    -14.358   271.604   49.8633   
3.343     -7797.61  -124.822  6294.08   0         0         41.2465   16.69     329.63    -14.4206  271.606   49.9102   
3.353     -7789.88  -124.695  6294.67   0         0         41.2189   16.69     329.63    -14.4725  271.565   49.8944   
3.363     -7783.18  -124.438  6294.87   0         0         41.1848   16.69     329.631   -14.5399  271.528   50.3711   
3.373     -7777.97  -123.751  6295.45   0         0         41.1503   16.69     329.622   -14.6145  271.522   50.5584   
3.383     -7771.16  -123.692  6295.87   0         0         41.111    16.69     329.619   -14.693   271.501   50.4256   
3.393     -7765.15  -122.861  6296.2    0         0         41.0689   16.69     329.62    -14.777   271.553   51.2024   
3.403     -7758.28  -122.323  6296.85   0         0         41.0274   16.69     329.62    -14.8611  271.503   51.5756   
3.413     -7750.73  -121.87   6297.19   0         0         40.9816   16.69     329.62    -14.9528  271.517   51.4466   
3.423     -7739.46  -121.377  6297.85   0         0         40.9386   16.69     329.62    -15.0429  271.538   51.6858   
3.433     -7731.72  -121.193  6297.68   0         0         40.8903   16.69     329.62    -15.1442  271.521   51.8246   
3.443     -7724.2   -120.192  6297.18   0         0         40.8471   16.69     329.621   -15.2311  271.523   51.7717   
3.453     -7717.75  -119.929  6296.72   0         0         40.8054   16.69     329.613   -15.3162  271.516   51.9336   
3.463     -7710.4   -119.251  6295.98   0         0         40.7693   16.69     329.609   -15.3915  271.53    52.1299   
3.473     -7702.52  -118.561  6295.97   0         0         40.7324   16.69     329.61    -15.4646  271.537   52.0744   
3.483     -7691.98  -118.62   6295.19   0         0         40.6912   16.69     329.61    -15.5484  271.529   52.1903   
3.493     -7684.96  -117.501  6295.14   0         0         40.6492   16.69     329.61    -15.6347  271.512   52.4383   
3.503     -7675.61  -117.079  6295.43   0         0         40.6039   16.69     329.61    -15.7257  271.516   52.348    
3.513     -7664.37  -116.716  6294.7    0         0         40.5596   16.6901   329.61    -15.8181  271.487   52.5853   
3.523     -7656.22  -115.395  6294.67   0         0         40.5117   16.6899   329.61    -15.9146  271.419   53.3354   
3.533     -7644.42  -115.393  6295.06   0         0         40.471    16.6902   329.61    -15.9993  271.436   53.2646   
3.543     -7634.99  -114.259  6295.14   0         0         40.427    16.6898   329.61    -16.0907  271.447   53.3857   
3.553     -7621.07  -113.546  6295.07   0         0         40.3846   16.6904   329.602   -16.1746  271.446   53.9736   
3.563     -7612.38  -112.783  6295.04   0         0         40.3406   16.6822   329.599   -16.2649  271.425   54.0055   
3.573     -7597.39  -111.943  6295.32   0         0         40.2999   16.6794   329.6     -16.3475  271.447   54.0101   
3.583     -7588.21  -111.576  6296.67   0         0         40.2537   16.6803   329.6     -16.4418  271.447   54.4479   
3.593     -7571.07  -109.992  6296.27   0         0         40.2125   16.6798   329.6     -16.5272  271.447   54.512    
3.603     -7565.15  -109.557  6296.4    0         0         40.1667   16.6801   329.6     -16.6217  271.447   54.495    
3.613     -7551.18  -109.257  6296.17   0         0         40.1304   16.6799   329.6     -16.6962  271.462   54.575    
3.623     -7551.23  -108.924  6296.72   0         0         40.0933   16.68     329.6     -16.7708  271.429   54.616    
3.633     -7537.68  -108.795  6296.37   0         0         40.0683   16.68     329.6     -16.8201  271.439   54.5699   
3.643     -7538.95  -108.627  6296.41   0         0         40.0341   16.68     329.6     -16.8878  271.39    54.9279   
3.653     -7531.64  -107.31   6296.51   0         0         40.0094   16.68     329.6     -16.9369  271.413   55.1531   
3.663     -7526.49  -107.766  6297.72   0         0         39.9738   16.68     329.6     -17.0087  271.369   55.0423   
3.673     -7515.89  -105.158  6297.13   0         0         39.9366   16.68     329.592   -17.0828  271.368   55.4614   
3.683     -7511.86  -105.978  6299.02   0         0         39.8881   16.68     329.59    -17.1813  271.316   55.9096   
3.693     -7499.91  -104.964  6300.06   0         0         39.8442   16.68     329.59    -17.2741  271.352   55.663    
3.703     -7497.53  -104.583  6300.75   0         0         39.7927   16.68     329.59    -17.3777  271.346   56.3639   
3.713     -7489.27  -104.072  6300.23   0         0         39.7539   16.68     329.59    -17.4577  271.302   57.1988   
3.723     -7485.38  -104.081  6300.14   0         0         39.7123   16.68     329.59    -17.5415  271.338   57.0537   
3.733     -7468.81  -104.135  6299.75   0         0         39.6738   16.68     329.59    -17.6242  271.345   57.1263   
3.743     -7460.81  -104.47   6300.16   0         0         39.6227   16.68     329.59    -17.7276  271.332   57.0871   
3.753     -7440.84  -103.652  6298.77   0         0         39.5715   16.68     329.59    -17.8324  271.35    57.1006   
3.763     -7429.89  -104.385  6298.14   0         0         39.5128   16.68     329.59    -17.9573  271.339   57.144    
3.773     -7415.33  -104.309  6297.13   0         0         39.4615   16.68     329.59    -18.0659  271.35    57.4168   
3.783     -7415.62  -104.1    6297.29   0         0         39.4168   16.68     329.591   -18.1535  271.339   57.3813   
3.793     -7395.3   -104.9    6295.87   0         0         39.3886   16.68     329.585   -18.2143  271.321   57.4487   
3.804     -7389.04  -103.873  6295.09   0         0         39.3475   16.68     329.579   -18.2923  271.29    57.8757   
3.814     -7373.56  -102.603  6295.35   0         0         39.3141   16.68     329.58    -18.3625  271.316   57.9033   
3.824     -7363.31  -102.969  6295.64   0         0         39.2689   16.68     329.58    -18.4539  271.257   57.9138   
3.834     -7344.21  -100.597  6294.21   0         0         39.2259   16.68     329.58    -18.5429  271.262   58.5871   
3.844     -7335.81  -103.015  6296.46   0         0         39.1719   16.68     329.58    -18.6525  271.217   58.7432   
3.854     -7319.85  -102.24   6298.19   0         0         39.1316   16.68     329.58    -18.7408  271.241   58.6567   
3.864     -7309.47  -102.165  6299.16   0         0         39.0855   16.68     329.58    -18.8328  271.234   59.3154   
3.874     -7302.97  -101.943  6299.46   0         0         39.0508   16.68     329.58    -18.9021  271.212   59.5522   
3.884     -7303.18  -100.908  6299.58   0         0         39.0239   16.6801   329.58    -18.9559  271.205   59.4588   
3.894     -7289.17  -100.709  6300.02   0         0         39.0037   16.6799   329.58    -18.9958  271.271   59.7034   
3.904     -7286.68  -100.619  6300.89   0         0         38.9726   16.6799   329.58    -19.0599  271.221   59.8217   
3.914     -7271.98  -98.519   6299.65   0         0         38.9397   16.6714   329.58    -19.1267  271.246   59.7785   
3.924     -7267.09  -99.1189  6298.78   0         0         38.8919   16.6696   329.58    -19.2247  271.224   59.9043   
3.934     -7253.22  -99.0219  6298.7    0         0         38.8398   16.6702   329.58    -19.3328  271.231   60.0216   
3.944     -7248.48  -98.9148  6299.47   0         0         38.7521   16.6699   329.58    -19.5109  271.229   59.9734   
3.954     -7216.4   -100.584  6299.46   0         0         38.6056   16.6785   329.58    -19.821   271.244   60.1664   
3.964     -7194.57  -98.4348  6298.16   0         0         38.3465   16.6805   329.58    -20.3634  271.214   60.595    
3.974     -7147.76  -96.878   6298.42   0         0         37.9961   16.6796   329.58    -21.0977  271.204   60.3693   
3.984     -7106.63  -95.2732  6298.26   0         0         37.5528   16.6804   329.58    -22.029   271.175   60.9741   
3.994     -7055.08  -88.104   6295.8    0         0         37.0702   16.6793   329.58    -23.0415  271.163   62.2897   
4.004     -7005.55  -86.4189  6294.34   0         0         36.5661   16.687    329.58    -24.0959  271.13    62.1532   
4.014     -6955.31  -83.1628  6295.87   0         0         36.0824   16.6907   329.58    -25.1166  271.138   62.2289   
4.024     -6908.86  -80.444   6297.1    0         0         35.6132   16.6897   329.58    -26.093   271.167   62.1833   
4.034     -6863.39  -77.3858  6297.25   0         0         35.1645   16.6902   329.58    -27.0312  271.146   62.2086   
4.044     -6826.97  -74.2735  6296.32   0         0         34.7137   16.6899   329.581   -27.9661  271.158   62.2129   
4.054     -6780.96  -72.3665  6294.78   0         0         34.2485   16.6901   329.574   -28.9296  271.193   62.488    
4.064     -6736.23  -69.6433  6294.08   0         0         33.743    16.69     329.569   -29.9752  271.153   62.5002   
4.074     -6670.89  -64.9369  6292.56   0         0         33.1888   16.69     329.57    -31.1257  271.167   62.5036   
4.084     -6606.78  -59.604   6289.38   0         0         32.5775   16.6901   329.57    -32.3969  271.14    62.6644   
4.094     -6534.29  -54.8704  6285.22   0         0         31.9492   16.6899   329.57    -33.702   271.16    62.7173   
4.104     -6481.71  -49.8197  6280.69   0         0         31.3539   16.6902   329.57    -34.9366  271.137   62.676    
4.114     -6432.61  -48.5047  6277.62   0         0         30.857    16.6897   329.57    -35.9663  271.097   63.0644   
4.124     -6402.17  -47.6425  6274.16   0         0         30.4634   16.6907   329.57    -36.7752  271.108   63.2451   
4.134     -6378.19  -45.593   6272.35   0         0         30.1654   16.6842   329.57    -37.3864  271.121   63.1528   
4.144     -6363.79  -46.5331  6272.18   0         0         29.9139   16.6789   329.57    -37.8958  271.099   63.5073   
4.154     -6346.73  -44.4787  6272.29   0         0         29.6634   16.6809   329.57    -38.4025  271.096   63.756    
4.164     -6331.41  -43.6151  6271.36   0         0         29.3673   16.6722   329.57    -39.005   271.05    63.6398   
4.174     -6316.8   -42.4225  6271.14   0         0         29.0224   16.6696   329.561   -39.7104  271.054   63.9569   
4.184     -6294.16  -40.761   6273.1    0         0         28.6209   16.6702   329.56    -40.541   271.011   64.2386   
4.194     -6268.5   -39.5579  6276.84   0         0         28.1792   16.6699   329.56    -41.4508  271.012   64.1771   
4.204     -6245.04  -36.1253  6281.07   0         0         27.7264   16.6701   329.56    -42.3905  271.002   64.2664   
4.214     -6222.93  -35.6493  6283.41   0         0         27.2766   16.6699   329.553   -43.3252  270.995   64.4367   
4.224     -6209.69  -33.1898  6285.51   0         0         26.8534   16.67     329.549   -44.2141  271.001   64.3406   
4.234     -6194.82  -32.4041  6287.62   0         0         26.4554   16.67     329.551   -45.0385  271.001   64.6249   
4.244     -6182.95  -33.25    6290.95   0         0         26.0689   16.67     329.546   -45.8418  270.995   65.3404   
4.254     -6167.67  -32.5668  6292.75   0         0         25.6812   16.67     329.539   -46.6477  271.016   65.2784   
4.264     -6150.4   -32.2436  6293.01   0         0         25.2805   16.67     329.541   -47.4777  271.034   65.3085   
4.274     -6125.79  -30.9049  6291.5    0         0         24.8585   16.67     329.536   -48.3531  270.991   65.2997   
4.284     -6104.13  -30.7071  6288.84   0         0         24.4104   16.67     329.529   -49.2858  271.003   65.282    
4.294     -6072.78  -30.3028  6284.9    0         0         23.9429   16.67     329.53    -50.2545  271.046   65.4078   
4.304     -6054.23  -31.7903  6280.8    0         0         23.4771   16.67     329.53    -51.2279  271.024   67.1377   
4.314     -6029.9   -31.4508  6277.39   0         0         23.022    16.67     329.53    -52.1707  271.068   67.3508   
4.324     -5997.94  -30.427   6274.4    0         0         22.5612   16.67     329.521   -53.1281  271.038   67.2677   
4.334     -5970.42  -30.026   6270.98   0         0         22.106    16.67     329.519   -54.0754  271.035   68.5463   
4.344     -5945.63  -30.7237  6267.11   0         0         21.658    16.67     329.521   -55.0048  271.027   68.8722   
4.354     -5921.2   -30.2508  6263.57   0         0         21.2108   16.67     329.517   -55.9344  271.015   68.7467   
4.364     -5900.68  -28.5261  6261.63   0         0         20.7614   16.67     329.51    -56.867   270.999   69.1695   
4.374     -5875.46  -30.0361  6259.87   0         0         20.3137   16.67     329.504   -57.7944  271.022   69.3363   
4.384     -5853.91  -29.9035  6257.6    0         0         19.8631   16.67     329.495   -58.7298  271.013   69.2617   
4.394     -5835.17  -29.3329  6254.77   0         0         19.4157   16.67     329.486   -59.6566  271.002   69.5856   
4.404     -5820.04  -29.7657  6255.41   0         0         18.969    16.6701   329.476   -60.5848  271.004   69.87     
4.414     -5797.94  -29.1172  6257.76   0         0         18.5121   16.6699   329.468   -61.5346  271.001   69.7182   
4.424     -5782.95  -29.8268  6261.33   0         0         18.0424   16.6701   329.457   -62.5052  270.991   70.1763   
4.434     -5769.62  -29.041   6264.69   0         0         17.5951   16.6698   329.447   -63.4362  270.99    70.6791   
4.444     -5747.59  -27.8462  6268.74   0         0         17.1415   16.6704   329.436   -64.3781  270.97    70.539    
4.454     -5737.29  -28.0854  6273.13   0         0         16.6817   16.6689   329.42    -65.333   270.967   70.7556   
4.464     -5726.64  -29.4228  6276.84   0         0         16.2327   16.6703   329.402   -66.2684  270.98    71.0184   
4.474     -5717.74  -31.099   6281.78   0         0         15.7738   16.6667   329.383   -67.2209  270.974   70.993    
4.484     -5701.42  -32.9221  6295.96   0         0         15.3022   16.6627   329.379   -68.1944  270.93    71.0049   
4.494     -5691.27  -31.6534  6306.81   0         0         14.7214   16.6674   329.371   -69.4048  270.939   70.9977   

**END